022b 1.8 bar He
Integration time [ms]:   10.00
Averaging Nr. [scans]: 2
Smoothing Nr. [pixels]: 0
Data measured with spectrometer [name]: 0705014U1
Wave   ;Sample   ;Dark     ;Reference;Scope
[nm]   ;[counts] ;[counts] ;[counts] 

 177.04;  -27.500;    0.000;    0.000
 177.39;  -26.500;    0.000;    0.000
 177.73;   43.500;    0.000;    0.000
 178.07;   24.000;    0.000;    0.000
 178.41;   48.000;    0.000;    0.000
 178.75;   25.500;    0.000;    0.000
 179.09;    8.000;    0.000;    0.000
 179.43;   22.000;    0.000;    0.000
 179.78;   46.000;    0.000;    0.000
 180.12;   72.500;    0.000;    0.000
 180.46;   10.000;    0.000;    0.000
 180.80;  -12.500;    0.000;    0.000
 181.14;   17.000;    0.000;    0.000
 181.48;   -9.500;    0.000;    0.000
 181.82;   15.500;    0.000;    0.000
 182.17;    9.500;    0.000;    0.000
 182.51;    4.500;    0.000;    0.000
 182.85;  -20.000;    0.000;    0.000
 183.19;   -9.000;    0.000;    0.000
 183.53;   32.500;    0.000;    0.000
 183.87;  -19.000;    0.000;    0.000
 184.21;   33.500;    0.000;    0.000
 184.55;   12.000;    0.000;    0.000
 184.90;    9.000;    0.000;    0.000
 185.24;   80.000;    0.000;    0.000
 185.58;   46.000;    0.000;    0.000
 185.92;  -35.000;    0.000;    0.000
 186.26;   27.500;    0.000;    0.000
 186.60;  -17.500;    0.000;    0.000
 186.94;   11.500;    0.000;    0.000
 187.28;   31.000;    0.000;    0.000
 187.63;    5.000;    0.000;    0.000
 187.97;   40.500;    0.000;    0.000
 188.31;    9.000;    0.000;    0.000
 188.65;   23.000;    0.000;    0.000
 188.99;    2.000;    0.000;    0.000
 189.33;   -7.500;    0.000;    0.000
 189.67;   23.000;    0.000;    0.000
 190.01;  -13.500;    0.000;    0.000
 190.36;   -6.000;    0.000;    0.000
 190.70;  -10.000;    0.000;    0.000
 191.04;   45.500;    0.000;    0.000
 191.38;    7.500;    0.000;    0.000
 191.72;   17.000;    0.000;    0.000
 192.06;   27.000;    0.000;    0.000
 192.40;   60.500;    0.000;    0.000
 192.74;    3.000;    0.000;    0.000
 193.08;    4.500;    0.000;    0.000
 193.43;   -3.500;    0.000;    0.000
 193.77;   41.000;    0.000;    0.000
 194.11;   20.000;    0.000;    0.000
 194.45;   -1.000;    0.000;    0.000
 194.79;   -7.000;    0.000;    0.000
 195.13;   28.000;    0.000;    0.000
 195.47;    3.500;    0.000;    0.000
 195.81;  -11.500;    0.000;    0.000
 196.15;   41.500;    0.000;    0.000
 196.49;   -3.000;    0.000;    0.000
 196.84;    8.000;    0.000;    0.000
 197.18;   35.500;    0.000;    0.000
 197.52;   18.000;    0.000;    0.000
 197.86;  -22.000;    0.000;    0.000
 198.20;   13.500;    0.000;    0.000
 198.54;   36.500;    0.000;    0.000
 198.88;   15.000;    0.000;    0.000
 199.22;    4.500;    0.000;    0.000
 199.56;   28.000;    0.000;    0.000
 199.90;  -27.500;    0.000;    0.000
 200.25;   14.500;    0.000;    0.000
 200.59;    3.000;    0.000;    0.000
 200.93;   66.500;    0.000;    0.000
 201.27;  -17.500;    0.000;    0.000
 201.61;   31.000;    0.000;    0.000
 201.95;   36.000;    0.000;    0.000
 202.29;   32.500;    0.000;    0.000
 202.63;   -1.500;    0.000;    0.000
 202.97;    8.000;    0.000;    0.000
 203.31;  -19.000;    0.000;    0.000
 203.65;  -16.000;    0.000;    0.000
 203.99;   15.000;    0.000;    0.000
 204.34;    1.000;    0.000;    0.000
 204.68;   47.500;    0.000;    0.000
 205.02;   33.500;    0.000;    0.000
 205.36;  -11.500;    0.000;    0.000
 205.70;   38.500;    0.000;    0.000
 206.04;   11.000;    0.000;    0.000
 206.38;   24.500;    0.000;    0.000
 206.72;   22.500;    0.000;    0.000
 207.06;  -12.000;    0.000;    0.000
 207.40;   -5.000;    0.000;    0.000
 207.74;   34.500;    0.000;    0.000
 208.08;  -28.500;    0.000;    0.000
 208.42;    2.500;    0.000;    0.000
 208.76;   -6.500;    0.000;    0.000
 209.11;  -21.500;    0.000;    0.000
 209.45;   40.000;    0.000;    0.000
 209.79;    2.500;    0.000;    0.000
 210.13;    1.000;    0.000;    0.000
 210.47;   36.500;    0.000;    0.000
 210.81;   -4.000;    0.000;    0.000
 211.15;   27.000;    0.000;    0.000
 211.49;  -16.500;    0.000;    0.000
 211.83;   51.500;    0.000;    0.000
 212.17;    9.000;    0.000;    0.000
 212.51;   40.000;    0.000;    0.000
 212.85;  -17.000;    0.000;    0.000
 213.19;   -6.500;    0.000;    0.000
 213.53;   19.000;    0.000;    0.000
 213.87;   -5.500;    0.000;    0.000
 214.21;   31.500;    0.000;    0.000
 214.55;   25.500;    0.000;    0.000
 214.89;   21.000;    0.000;    0.000
 215.24;   -3.500;    0.000;    0.000
 215.58;   69.000;    0.000;    0.000
 215.92;   17.000;    0.000;    0.000
 216.26;   20.500;    0.000;    0.000
 216.60;   -4.500;    0.000;    0.000
 216.94;    5.000;    0.000;    0.000
 217.28;   13.500;    0.000;    0.000
 217.62;   14.000;    0.000;    0.000
 217.96;   -2.000;    0.000;    0.000
 218.30;  -18.000;    0.000;    0.000
 218.64;   -0.500;    0.000;    0.000
 218.98;   56.500;    0.000;    0.000
 219.32;    4.000;    0.000;    0.000
 219.66;  -12.500;    0.000;    0.000
 220.00;   56.000;    0.000;    0.000
 220.34;   30.000;    0.000;    0.000
 220.68;   53.000;    0.000;    0.000
 221.02;   12.500;    0.000;    0.000
 221.36;   41.000;    0.000;    0.000
 221.70;  -22.500;    0.000;    0.000
 222.04;   20.000;    0.000;    0.000
 222.38;   -8.000;    0.000;    0.000
 222.72;  -16.500;    0.000;    0.000
 223.06;   47.000;    0.000;    0.000
 223.40;   33.500;    0.000;    0.000
 223.74;   11.500;    0.000;    0.000
 224.08;   -1.000;    0.000;    0.000
 224.43;   36.500;    0.000;    0.000
 224.77;   27.500;    0.000;    0.000
 225.11;   25.000;    0.000;    0.000
 225.45;    7.500;    0.000;    0.000
 225.79;   -8.000;    0.000;    0.000
 226.13;   22.000;    0.000;    0.000
 226.47;   10.000;    0.000;    0.000
 226.81;   16.500;    0.000;    0.000
 227.15;   19.500;    0.000;    0.000
 227.49;   25.000;    0.000;    0.000
 227.83;   13.500;    0.000;    0.000
 228.17;  -14.000;    0.000;    0.000
 228.51;   11.000;    0.000;    0.000
 228.85;   30.500;    0.000;    0.000
 229.19;   12.000;    0.000;    0.000
 229.53;   34.000;    0.000;    0.000
 229.87;   52.500;    0.000;    0.000
 230.21;   38.500;    0.000;    0.000
 230.55;   53.500;    0.000;    0.000
 230.89;   22.000;    0.000;    0.000
 231.23;   11.500;    0.000;    0.000
 231.57;    9.500;    0.000;    0.000
 231.91;  -11.500;    0.000;    0.000
 232.25;    8.500;    0.000;    0.000
 232.59;  -29.500;    0.000;    0.000
 232.93;  -42.500;    0.000;    0.000
 233.27;   31.000;    0.000;    0.000
 233.61;   53.500;    0.000;    0.000
 233.95;   60.000;    0.000;    0.000
 234.29;   16.000;    0.000;    0.000
 234.63;   15.000;    0.000;    0.000
 234.97;   76.500;    0.000;    0.000
 235.31;   -7.500;    0.000;    0.000
 235.65;    8.000;    0.000;    0.000
 235.99;   -9.500;    0.000;    0.000
 236.33;   41.500;    0.000;    0.000
 236.67;  -31.500;    0.000;    0.000
 237.01;   -5.500;    0.000;    0.000
 237.35;   17.500;    0.000;    0.000
 237.69;  -31.000;    0.000;    0.000
 238.03;   13.000;    0.000;    0.000
 238.37;   16.000;    0.000;    0.000
 238.71;   30.500;    0.000;    0.000
 239.05;   54.500;    0.000;    0.000
 239.39;  -11.000;    0.000;    0.000
 239.73;  -18.500;    0.000;    0.000
 240.07;   10.500;    0.000;    0.000
 240.41;   43.500;    0.000;    0.000
 240.75;   10.000;    0.000;    0.000
 241.09;    3.500;    0.000;    0.000
 241.42;   31.000;    0.000;    0.000
 241.76;   -7.500;    0.000;    0.000
 242.10;   37.000;    0.000;    0.000
 242.44;   29.000;    0.000;    0.000
 242.78;   73.000;    0.000;    0.000
 243.12;   68.500;    0.000;    0.000
 243.46;   33.500;    0.000;    0.000
 243.80;   33.500;    0.000;    0.000
 244.14;   68.000;    0.000;    0.000
 244.48;   44.500;    0.000;    0.000
 244.82;   39.500;    0.000;    0.000
 245.16;   16.000;    0.000;    0.000
 245.50;   -7.000;    0.000;    0.000
 245.84;   12.000;    0.000;    0.000
 246.18;   26.000;    0.000;    0.000
 246.52;   47.000;    0.000;    0.000
 246.86;  -17.500;    0.000;    0.000
 247.20;   33.500;    0.000;    0.000
 247.54;   29.500;    0.000;    0.000
 247.88;   51.000;    0.000;    0.000
 248.22;  -15.000;    0.000;    0.000
 248.56;   33.500;    0.000;    0.000
 248.90;    4.000;    0.000;    0.000
 249.24;   17.000;    0.000;    0.000
 249.58;   20.000;    0.000;    0.000
 249.92;    2.500;    0.000;    0.000
 250.26;   39.000;    0.000;    0.000
 250.59;   60.000;    0.000;    0.000
 250.93;   43.000;    0.000;    0.000
 251.27;   37.000;    0.000;    0.000
 251.61;   28.000;    0.000;    0.000
 251.95;   -0.500;    0.000;    0.000
 252.29;   13.500;    0.000;    0.000
 252.63;   31.500;    0.000;    0.000
 252.97;   22.000;    0.000;    0.000
 253.31;   -7.000;    0.000;    0.000
 253.65;   36.500;    0.000;    0.000
 253.99;   57.500;    0.000;    0.000
 254.33;   37.000;    0.000;    0.000
 254.67;   -4.000;    0.000;    0.000
 255.01;   43.000;    0.000;    0.000
 255.35;   17.000;    0.000;    0.000
 255.69;  -12.000;    0.000;    0.000
 256.03;   -7.500;    0.000;    0.000
 256.37;   31.500;    0.000;    0.000
 256.70;  -37.500;    0.000;    0.000
 257.04;  -17.000;    0.000;    0.000
 257.38;    4.000;    0.000;    0.000
 257.72;  -17.500;    0.000;    0.000
 258.06;   14.500;    0.000;    0.000
 258.40;   52.000;    0.000;    0.000
 258.74;   28.500;    0.000;    0.000
 259.08;   47.500;    0.000;    0.000
 259.42;   32.000;    0.000;    0.000
 259.76;    8.000;    0.000;    0.000
 260.10;  -14.000;    0.000;    0.000
 260.44;   46.000;    0.000;    0.000
 260.78;   43.000;    0.000;    0.000
 261.11;   -7.500;    0.000;    0.000
 261.45;   40.000;    0.000;    0.000
 261.79;   67.500;    0.000;    0.000
 262.13;   11.000;    0.000;    0.000
 262.47;  -16.000;    0.000;    0.000
 262.81;   14.500;    0.000;    0.000
 263.15;   48.500;    0.000;    0.000
 263.49;    6.000;    0.000;    0.000
 263.83;   10.000;    0.000;    0.000
 264.17;   20.000;    0.000;    0.000
 264.51;   17.000;    0.000;    0.000
 264.85;  -20.000;    0.000;    0.000
 265.18;   15.500;    0.000;    0.000
 265.52;   19.000;    0.000;    0.000
 265.86;   10.500;    0.000;    0.000
 266.20;  -19.500;    0.000;    0.000
 266.54;   14.500;    0.000;    0.000
 266.88;    2.500;    0.000;    0.000
 267.22;   -9.000;    0.000;    0.000
 267.56;   27.000;    0.000;    0.000
 267.90;   17.500;    0.000;    0.000
 268.24;   11.500;    0.000;    0.000
 268.57;  -21.000;    0.000;    0.000
 268.91;   -8.500;    0.000;    0.000
 269.25;    7.000;    0.000;    0.000
 269.59;  -15.000;    0.000;    0.000
 269.93;  -15.500;    0.000;    0.000
 270.27;   -6.500;    0.000;    0.000
 270.61;   -1.000;    0.000;    0.000
 270.95;   26.500;    0.000;    0.000
 271.29;    5.000;    0.000;    0.000
 271.63;   25.000;    0.000;    0.000
 271.96;  -20.500;    0.000;    0.000
 272.30;  -52.500;    0.000;    0.000
 272.64;    5.000;    0.000;    0.000
 272.98;    7.500;    0.000;    0.000
 273.32;   22.000;    0.000;    0.000
 273.66;   49.500;    0.000;    0.000
 274.00;  -54.000;    0.000;    0.000
 274.34;   10.500;    0.000;    0.000
 274.68;   31.000;    0.000;    0.000
 275.01;   41.000;    0.000;    0.000
 275.35;   12.500;    0.000;    0.000
 275.69;   46.000;    0.000;    0.000
 276.03;   39.500;    0.000;    0.000
 276.37;   70.500;    0.000;    0.000
 276.71;  -23.000;    0.000;    0.000
 277.05;    8.500;    0.000;    0.000
 277.39;   70.500;    0.000;    0.000
 277.72;   24.000;    0.000;    0.000
 278.06;   42.500;    0.000;    0.000
 278.40;   14.500;    0.000;    0.000
 278.74;    1.000;    0.000;    0.000
 279.08;   34.500;    0.000;    0.000
 279.42;    0.500;    0.000;    0.000
 279.76;    5.000;    0.000;    0.000
 280.09;   19.500;    0.000;    0.000
 280.43;  -21.500;    0.000;    0.000
 280.77;   65.000;    0.000;    0.000
 281.11;   38.000;    0.000;    0.000
 281.45;   69.000;    0.000;    0.000
 281.79;   97.000;    0.000;    0.000
 282.13;   13.000;    0.000;    0.000
 282.47;   39.500;    0.000;    0.000
 282.80;   51.500;    0.000;    0.000
 283.14;   40.500;    0.000;    0.000
 283.48;   -1.000;    0.000;    0.000
 283.82;   -5.500;    0.000;    0.000
 284.16;   24.500;    0.000;    0.000
 284.50;   45.500;    0.000;    0.000
 284.84;    3.500;    0.000;    0.000
 285.17;   23.500;    0.000;    0.000
 285.51;   11.500;    0.000;    0.000
 285.85;   24.500;    0.000;    0.000
 286.19;   46.500;    0.000;    0.000
 286.53;   28.500;    0.000;    0.000
 286.87;   -2.500;    0.000;    0.000
 287.20;   43.500;    0.000;    0.000
 287.54;   -7.500;    0.000;    0.000
 287.88;   26.500;    0.000;    0.000
 288.22;   35.500;    0.000;    0.000
 288.56;   53.000;    0.000;    0.000
 288.90;   -6.000;    0.000;    0.000
 289.24;   36.500;    0.000;    0.000
 289.57;    7.500;    0.000;    0.000
 289.91;   22.000;    0.000;    0.000
 290.25;   10.000;    0.000;    0.000
 290.59;  -20.000;    0.000;    0.000
 290.93;   37.000;    0.000;    0.000
 291.27;   41.500;    0.000;    0.000
 291.60;    5.500;    0.000;    0.000
 291.94;   34.000;    0.000;    0.000
 292.28;  -23.500;    0.000;    0.000
 292.62;  -48.500;    0.000;    0.000
 292.96;   -0.500;    0.000;    0.000
 293.30;   -6.500;    0.000;    0.000
 293.63;   12.500;    0.000;    0.000
 293.97;   -2.500;    0.000;    0.000
 294.31;   10.500;    0.000;    0.000
 294.65;   19.500;    0.000;    0.000
 294.99;   -6.500;    0.000;    0.000
 295.32;   35.500;    0.000;    0.000
 295.66;  -26.500;    0.000;    0.000
 296.00;   -3.000;    0.000;    0.000
 296.34;   20.000;    0.000;    0.000
 296.68;    9.500;    0.000;    0.000
 297.02;   22.000;    0.000;    0.000
 297.35;    8.500;    0.000;    0.000
 297.69;    3.000;    0.000;    0.000
 298.03;   58.000;    0.000;    0.000
 298.37;  -10.500;    0.000;    0.000
 298.71;   -9.000;    0.000;    0.000
 299.04;   -9.000;    0.000;    0.000
 299.38;   53.500;    0.000;    0.000
 299.72;    8.500;    0.000;    0.000
 300.06;   40.500;    0.000;    0.000
 300.40;   37.000;    0.000;    0.000
 300.73;   33.500;    0.000;    0.000
 301.07;   38.500;    0.000;    0.000
 301.41;   18.500;    0.000;    0.000
 301.75;  -15.500;    0.000;    0.000
 302.09;   31.500;    0.000;    0.000
 302.42;  -10.500;    0.000;    0.000
 302.76;   -0.500;    0.000;    0.000
 303.10;  -48.500;    0.000;    0.000
 303.44;   17.000;    0.000;    0.000
 303.78;   -5.000;    0.000;    0.000
 304.11;   -1.500;    0.000;    0.000
 304.45;   19.500;    0.000;    0.000
 304.79;   70.000;    0.000;    0.000
 305.13;   11.000;    0.000;    0.000
 305.47;  -21.500;    0.000;    0.000
 305.80;  -11.500;    0.000;    0.000
 306.14;    4.500;    0.000;    0.000
 306.48;   22.500;    0.000;    0.000
 306.82;   14.500;    0.000;    0.000
 307.16;   -6.000;    0.000;    0.000
 307.49;   34.000;    0.000;    0.000
 307.83;   45.000;    0.000;    0.000
 308.17;  -46.500;    0.000;    0.000
 308.51;   51.500;    0.000;    0.000
 308.84;   28.000;    0.000;    0.000
 309.18;   42.500;    0.000;    0.000
 309.52;   -0.500;    0.000;    0.000
 309.86;   24.500;    0.000;    0.000
 310.20;   17.500;    0.000;    0.000
 310.53;    9.500;    0.000;    0.000
 310.87;   11.000;    0.000;    0.000
 311.21;    7.000;    0.000;    0.000
 311.55;    3.500;    0.000;    0.000
 311.88;   30.000;    0.000;    0.000
 312.22;   22.500;    0.000;    0.000
 312.56;   19.000;    0.000;    0.000
 312.90;   43.500;    0.000;    0.000
 313.24;  -12.000;    0.000;    0.000
 313.57;   47.000;    0.000;    0.000
 313.91;   11.500;    0.000;    0.000
 314.25;   52.500;    0.000;    0.000
 314.59;  -17.000;    0.000;    0.000
 314.92;   46.000;    0.000;    0.000
 315.26;   27.000;    0.000;    0.000
 315.60;   33.000;    0.000;    0.000
 315.94;  -19.000;    0.000;    0.000
 316.27;   10.500;    0.000;    0.000
 316.61;  -13.500;    0.000;    0.000
 316.95;   24.500;    0.000;    0.000
 317.29;   49.000;    0.000;    0.000
 317.62;   13.500;    0.000;    0.000
 317.96;  -22.500;    0.000;    0.000
 318.30;   -5.000;    0.000;    0.000
 318.64;   52.000;    0.000;    0.000
 318.97;  -27.500;    0.000;    0.000
 319.31;   28.500;    0.000;    0.000
 319.65;   -2.000;    0.000;    0.000
 319.99;   46.000;    0.000;    0.000
 320.32;  -22.000;    0.000;    0.000
 320.66;   26.000;    0.000;    0.000
 321.00;    7.500;    0.000;    0.000
 321.34;   45.500;    0.000;    0.000
 321.67;   78.000;    0.000;    0.000
 322.01;   61.500;    0.000;    0.000
 322.35;   -5.000;    0.000;    0.000
 322.69;  -68.000;    0.000;    0.000
 323.02;   46.500;    0.000;    0.000
 323.36;  -22.500;    0.000;    0.000
 323.70;   40.000;    0.000;    0.000
 324.04;   -9.000;    0.000;    0.000
 324.37;   59.000;    0.000;    0.000
 324.71;   55.000;    0.000;    0.000
 325.05;   29.500;    0.000;    0.000
 325.39;   72.500;    0.000;    0.000
 325.72;   13.500;    0.000;    0.000
 326.06;   48.000;    0.000;    0.000
 326.40;   -2.500;    0.000;    0.000
 326.73;   30.000;    0.000;    0.000
 327.07;   38.500;    0.000;    0.000
 327.41;   -3.000;    0.000;    0.000
 327.75;   30.000;    0.000;    0.000
 328.08;  -16.500;    0.000;    0.000
 328.42;   -4.000;    0.000;    0.000
 328.76;   55.000;    0.000;    0.000
 329.10;   47.500;    0.000;    0.000
 329.43;   25.500;    0.000;    0.000
 329.77;   29.000;    0.000;    0.000
 330.11;   36.500;    0.000;    0.000
 330.44;   -8.500;    0.000;    0.000
 330.78;    8.000;    0.000;    0.000
 331.12;    1.500;    0.000;    0.000
 331.46;  -16.000;    0.000;    0.000
 331.79;    9.000;    0.000;    0.000
 332.13;  -21.500;    0.000;    0.000
 332.47;   29.000;    0.000;    0.000
 332.80;   42.000;    0.000;    0.000
 333.14;   45.000;    0.000;    0.000
 333.48;  -13.000;    0.000;    0.000
 333.81;   21.500;    0.000;    0.000
 334.15;   43.000;    0.000;    0.000
 334.49;   22.000;    0.000;    0.000
 334.83;   47.000;    0.000;    0.000
 335.16;   19.500;    0.000;    0.000
 335.50;   28.500;    0.000;    0.000
 335.84;   12.500;    0.000;    0.000
 336.17;    7.500;    0.000;    0.000
 336.51;   26.500;    0.000;    0.000
 336.85;   33.000;    0.000;    0.000
 337.18;   53.500;    0.000;    0.000
 337.52;   16.500;    0.000;    0.000
 337.86;   44.500;    0.000;    0.000
 338.20;   18.500;    0.000;    0.000
 338.53;   37.500;    0.000;    0.000
 338.87;  -32.000;    0.000;    0.000
 339.21;    0.500;    0.000;    0.000
 339.54;  -11.500;    0.000;    0.000
 339.88;  -15.500;    0.000;    0.000
 340.22;    7.500;    0.000;    0.000
 340.55;    7.000;    0.000;    0.000
 340.89;   31.500;    0.000;    0.000
 341.23;   11.000;    0.000;    0.000
 341.56;   35.500;    0.000;    0.000
 341.90;   42.500;    0.000;    0.000
 342.24;   47.000;    0.000;    0.000
 342.57;   49.000;    0.000;    0.000
 342.91;   17.000;    0.000;    0.000
 343.25;   56.000;    0.000;    0.000
 343.58;   27.500;    0.000;    0.000
 343.92;    0.500;    0.000;    0.000
 344.26;    1.000;    0.000;    0.000
 344.60;   10.500;    0.000;    0.000
 344.93;   -2.500;    0.000;    0.000
 345.27;   62.000;    0.000;    0.000
 345.61;   88.500;    0.000;    0.000
 345.94;   37.500;    0.000;    0.000
 346.28;   18.000;    0.000;    0.000
 346.62;   24.500;    0.000;    0.000
 346.95;   10.500;    0.000;    0.000
 347.29;   -7.000;    0.000;    0.000
 347.63;   16.500;    0.000;    0.000
 347.96;   22.000;    0.000;    0.000
 348.30;    2.500;    0.000;    0.000
 348.64;    3.000;    0.000;    0.000
 348.97;    3.000;    0.000;    0.000
 349.31;   21.500;    0.000;    0.000
 349.64;   28.500;    0.000;    0.000
 349.98;   32.000;    0.000;    0.000
 350.32;   45.000;    0.000;    0.000
 350.65;  -11.500;    0.000;    0.000
 350.99;  -13.000;    0.000;    0.000
 351.33;   18.000;    0.000;    0.000
 351.66;   10.500;    0.000;    0.000
 352.00;   41.500;    0.000;    0.000
 352.34;   -5.500;    0.000;    0.000
 352.67;   27.500;    0.000;    0.000
 353.01;    3.500;    0.000;    0.000
 353.35;   76.500;    0.000;    0.000
 353.68;   -5.500;    0.000;    0.000
 354.02;  -39.500;    0.000;    0.000
 354.36;   20.500;    0.000;    0.000
 354.69;   79.500;    0.000;    0.000
 355.03;   13.500;    0.000;    0.000
 355.36;   -3.000;    0.000;    0.000
 355.70;   61.000;    0.000;    0.000
 356.04;   45.000;    0.000;    0.000
 356.37;    9.500;    0.000;    0.000
 356.71;  -18.500;    0.000;    0.000
 357.05;    3.000;    0.000;    0.000
 357.38;   -1.500;    0.000;    0.000
 357.72;   34.000;    0.000;    0.000
 358.06;   46.500;    0.000;    0.000
 358.39;   -5.500;    0.000;    0.000
 358.73;   19.500;    0.000;    0.000
 359.06;   17.500;    0.000;    0.000
 359.40;   42.000;    0.000;    0.000
 359.74;  -23.000;    0.000;    0.000
 360.07;  -10.500;    0.000;    0.000
 360.41;   27.500;    0.000;    0.000
 360.75;   20.500;    0.000;    0.000
 361.08;   26.500;    0.000;    0.000
 361.42;   11.500;    0.000;    0.000
 361.75;   -0.500;    0.000;    0.000
 362.09;  -14.500;    0.000;    0.000
 362.43;   12.500;    0.000;    0.000
 362.76;  -24.000;    0.000;    0.000
 363.10;   -3.000;    0.000;    0.000
 363.44;   21.000;    0.000;    0.000
 363.77;  -12.000;    0.000;    0.000
 364.11;   20.000;    0.000;    0.000
 364.44;   64.500;    0.000;    0.000
 364.78;   23.500;    0.000;    0.000
 365.12;  -10.000;    0.000;    0.000
 365.45;    3.000;    0.000;    0.000
 365.79;  -36.500;    0.000;    0.000
 366.12;    5.000;    0.000;    0.000
 366.46;  -23.500;    0.000;    0.000
 366.80;  -14.000;    0.000;    0.000
 367.13;   39.000;    0.000;    0.000
 367.47;   34.500;    0.000;    0.000
 367.80;   49.000;    0.000;    0.000
 368.14;   20.000;    0.000;    0.000
 368.48;   18.500;    0.000;    0.000
 368.81;   34.500;    0.000;    0.000
 369.15;   26.500;    0.000;    0.000
 369.48;    3.500;    0.000;    0.000
 369.82;   38.500;    0.000;    0.000
 370.16;   -1.000;    0.000;    0.000
 370.49;   38.000;    0.000;    0.000
 370.83;   20.000;    0.000;    0.000
 371.16;   -6.500;    0.000;    0.000
 371.50;   33.500;    0.000;    0.000
 371.84;    7.000;    0.000;    0.000
 372.17;   33.000;    0.000;    0.000
 372.51;   31.500;    0.000;    0.000
 372.84;    2.000;    0.000;    0.000
 373.18;   37.500;    0.000;    0.000
 373.51;   27.500;    0.000;    0.000
 373.85;   15.000;    0.000;    0.000
 374.19;   20.000;    0.000;    0.000
 374.52;   18.500;    0.000;    0.000
 374.86;   26.500;    0.000;    0.000
 375.19;   37.500;    0.000;    0.000
 375.53;   10.500;    0.000;    0.000
 375.86;   45.500;    0.000;    0.000
 376.20;  -31.000;    0.000;    0.000
 376.54;   20.000;    0.000;    0.000
 376.87;   27.500;    0.000;    0.000
 377.21;   39.500;    0.000;    0.000
 377.54;   42.000;    0.000;    0.000
 377.88;   -8.000;    0.000;    0.000
 378.21;   18.000;    0.000;    0.000
 378.55;    5.000;    0.000;    0.000
 378.89;   19.000;    0.000;    0.000
 379.22;   -1.500;    0.000;    0.000
 379.56;   48.000;    0.000;    0.000
 379.89;   27.500;    0.000;    0.000
 380.23;   79.500;    0.000;    0.000
 380.56;   28.000;    0.000;    0.000
 380.90;   14.500;    0.000;    0.000
 381.24;   12.500;    0.000;    0.000
 381.57;   20.000;    0.000;    0.000
 381.91;   -1.500;    0.000;    0.000
 382.24;   35.000;    0.000;    0.000
 382.58;   59.000;    0.000;    0.000
 382.91;   52.500;    0.000;    0.000
 383.25;   34.500;    0.000;    0.000
 383.58;   -3.000;    0.000;    0.000
 383.92;  -12.000;    0.000;    0.000
 384.25;   20.500;    0.000;    0.000
 384.59;  -25.000;    0.000;    0.000
 384.93;   -6.500;    0.000;    0.000
 385.26;   -9.000;    0.000;    0.000
 385.60;   53.000;    0.000;    0.000
 385.93;   11.500;    0.000;    0.000
 386.27;   23.500;    0.000;    0.000
 386.60;   49.000;    0.000;    0.000
 386.94;   25.500;    0.000;    0.000
 387.27;    3.000;    0.000;    0.000
 387.61;   31.500;    0.000;    0.000
 387.94;   54.500;    0.000;    0.000
 388.28;   13.500;    0.000;    0.000
 388.62;   16.500;    0.000;    0.000
 388.95;   15.500;    0.000;    0.000
 389.29;   13.500;    0.000;    0.000
 389.62;   23.000;    0.000;    0.000
 389.96;   24.500;    0.000;    0.000
 390.29;   16.500;    0.000;    0.000
 390.63;   10.000;    0.000;    0.000
 390.96;   82.500;    0.000;    0.000
 391.30;   -7.000;    0.000;    0.000
 391.63;   86.500;    0.000;    0.000
 391.97;   28.500;    0.000;    0.000
 392.30;  -16.000;    0.000;    0.000
 392.64;  -23.000;    0.000;    0.000
 392.97;  -10.500;    0.000;    0.000
 393.31;   17.500;    0.000;    0.000
 393.64;   36.000;    0.000;    0.000
 393.98;    5.500;    0.000;    0.000
 394.31;   30.500;    0.000;    0.000
 394.65;   69.000;    0.000;    0.000
 394.98;  -12.000;    0.000;    0.000
 395.32;   22.500;    0.000;    0.000
 395.65;   22.000;    0.000;    0.000
 395.99;   26.500;    0.000;    0.000
 396.32;   33.500;    0.000;    0.000
 396.66;   53.500;    0.000;    0.000
 397.00;   27.000;    0.000;    0.000
 397.33;   18.500;    0.000;    0.000
 397.67;   47.500;    0.000;    0.000
 398.00;   20.500;    0.000;    0.000
 398.34;   52.500;    0.000;    0.000
 398.67;   79.000;    0.000;    0.000
 399.01;   13.000;    0.000;    0.000
 399.34;   51.500;    0.000;    0.000
 399.68;   50.500;    0.000;    0.000
 400.01;  -39.000;    0.000;    0.000
 400.35;   23.500;    0.000;    0.000
 400.68;   20.000;    0.000;    0.000
 401.02;   18.500;    0.000;    0.000
 401.35;   -0.500;    0.000;    0.000
 401.68;   17.500;    0.000;    0.000
 402.02;   -8.500;    0.000;    0.000
 402.35;   61.000;    0.000;    0.000
 402.69;   -4.500;    0.000;    0.000
 403.02;    1.500;    0.000;    0.000
 403.36;   79.000;    0.000;    0.000
 403.69;    3.500;    0.000;    0.000
 404.03;   33.000;    0.000;    0.000
 404.36;   59.000;    0.000;    0.000
 404.70;   18.500;    0.000;    0.000
 405.03;   26.500;    0.000;    0.000
 405.37;    0.000;    0.000;    0.000
 405.70;   28.500;    0.000;    0.000
 406.04;   81.000;    0.000;    0.000
 406.37;   57.000;    0.000;    0.000
 406.71;   46.500;    0.000;    0.000
 407.04;   26.000;    0.000;    0.000
 407.38;  -10.500;    0.000;    0.000
 407.71;   54.500;    0.000;    0.000
 408.05;   44.000;    0.000;    0.000
 408.38;   16.000;    0.000;    0.000
 408.72;   31.500;    0.000;    0.000
 409.05;    6.000;    0.000;    0.000
 409.38;   14.500;    0.000;    0.000
 409.72;   -1.000;    0.000;    0.000
 410.05;   23.500;    0.000;    0.000
 410.39;   20.500;    0.000;    0.000
 410.72;   43.500;    0.000;    0.000
 411.06;   52.500;    0.000;    0.000
 411.39;   59.000;    0.000;    0.000
 411.73;   18.500;    0.000;    0.000
 412.06;   10.500;    0.000;    0.000
 412.40;   30.000;    0.000;    0.000
 412.73;   -1.500;    0.000;    0.000
 413.07;   58.500;    0.000;    0.000
 413.40;   -7.000;    0.000;    0.000
 413.73;   22.500;    0.000;    0.000
 414.07;   21.500;    0.000;    0.000
 414.40;  -25.500;    0.000;    0.000
 414.74;  -11.000;    0.000;    0.000
 415.07;   26.500;    0.000;    0.000
 415.41;   59.500;    0.000;    0.000
 415.74;   33.000;    0.000;    0.000
 416.08;   28.500;    0.000;    0.000
 416.41;   42.500;    0.000;    0.000
 416.74;    5.000;    0.000;    0.000
 417.08;    9.000;    0.000;    0.000
 417.41;   -3.000;    0.000;    0.000
 417.75;   36.500;    0.000;    0.000
 418.08;    5.000;    0.000;    0.000
 418.42;   15.500;    0.000;    0.000
 418.75;   67.000;    0.000;    0.000
 419.09;   33.500;    0.000;    0.000
 419.42;   15.500;    0.000;    0.000
 419.75;   64.500;    0.000;    0.000
 420.09;    1.500;    0.000;    0.000
 420.42;   -5.500;    0.000;    0.000
 420.76;   13.500;    0.000;    0.000
 421.09;   12.500;    0.000;    0.000
 421.43;   10.500;    0.000;    0.000
 421.76;   32.000;    0.000;    0.000
 422.09;   55.000;    0.000;    0.000
 422.43;   57.500;    0.000;    0.000
 422.76;  -55.500;    0.000;    0.000
 423.10;   47.500;    0.000;    0.000
 423.43;   23.500;    0.000;    0.000
 423.76;    7.500;    0.000;    0.000
 424.10;   39.500;    0.000;    0.000
 424.43;   21.000;    0.000;    0.000
 424.77;   26.000;    0.000;    0.000
 425.10;   32.000;    0.000;    0.000
 425.44;   42.500;    0.000;    0.000
 425.77;   30.000;    0.000;    0.000
 426.10;   53.000;    0.000;    0.000
 426.44;   -2.000;    0.000;    0.000
 426.77;   11.500;    0.000;    0.000
 427.11;   30.000;    0.000;    0.000
 427.44;   43.500;    0.000;    0.000
 427.77;    5.500;    0.000;    0.000
 428.11;   36.500;    0.000;    0.000
 428.44;    3.500;    0.000;    0.000
 428.78;    7.500;    0.000;    0.000
 429.11;   72.000;    0.000;    0.000
 429.44;   19.000;    0.000;    0.000
 429.78;   45.500;    0.000;    0.000
 430.11;   20.000;    0.000;    0.000
 430.45;   37.000;    0.000;    0.000
 430.78;  -18.500;    0.000;    0.000
 431.11;   59.500;    0.000;    0.000
 431.45;   53.500;    0.000;    0.000
 431.78;   24.000;    0.000;    0.000
 432.12;   40.000;    0.000;    0.000
 432.45;   13.000;    0.000;    0.000
 432.78;   21.000;    0.000;    0.000
 433.12;   28.500;    0.000;    0.000
 433.45;    8.500;    0.000;    0.000
 433.79;   71.000;    0.000;    0.000
 434.12;   23.000;    0.000;    0.000
 434.45;   29.500;    0.000;    0.000
 434.79;   28.000;    0.000;    0.000
 435.12;   40.500;    0.000;    0.000
 435.45;    9.000;    0.000;    0.000
 435.79;   44.500;    0.000;    0.000
 436.12;   -0.500;    0.000;    0.000
 436.46;   44.000;    0.000;    0.000
 436.79;   28.000;    0.000;    0.000
 437.12;   12.500;    0.000;    0.000
 437.46;   55.500;    0.000;    0.000
 437.79;   18.500;    0.000;    0.000
 438.12;   43.500;    0.000;    0.000
 438.46;   34.000;    0.000;    0.000
 438.79;  -16.000;    0.000;    0.000
 439.13;   31.000;    0.000;    0.000
 439.46;   31.000;    0.000;    0.000
 439.79;   25.000;    0.000;    0.000
 440.13;    3.500;    0.000;    0.000
 440.46;   14.000;    0.000;    0.000
 440.79;   36.000;    0.000;    0.000
 441.13;   37.500;    0.000;    0.000
 441.46;   32.000;    0.000;    0.000
 441.79;   49.500;    0.000;    0.000
 442.13;   17.500;    0.000;    0.000
 442.46;   23.000;    0.000;    0.000
 442.80;   41.000;    0.000;    0.000
 443.13;    5.000;    0.000;    0.000
 443.46;   10.500;    0.000;    0.000
 443.80;   47.500;    0.000;    0.000
 444.13;   10.000;    0.000;    0.000
 444.46;   45.500;    0.000;    0.000
 444.80;   16.000;    0.000;    0.000
 445.13;   42.000;    0.000;    0.000
 445.46;   40.500;    0.000;    0.000
 445.80;   29.000;    0.000;    0.000
 446.13;   21.000;    0.000;    0.000
 446.46;   36.000;    0.000;    0.000
 446.80;   75.500;    0.000;    0.000
 447.13;  -12.500;    0.000;    0.000
 447.46;   56.000;    0.000;    0.000
 447.80;   70.500;    0.000;    0.000
 448.13;   87.500;    0.000;    0.000
 448.46;   76.500;    0.000;    0.000
 448.80;   38.500;    0.000;    0.000
 449.13;   11.000;    0.000;    0.000
 449.46;    5.500;    0.000;    0.000
 449.80;   47.500;    0.000;    0.000
 450.13;   53.000;    0.000;    0.000
 450.46;   51.000;    0.000;    0.000
 450.80;    3.000;    0.000;    0.000
 451.13;   58.000;    0.000;    0.000
 451.46;   45.500;    0.000;    0.000
 451.80;   27.500;    0.000;    0.000
 452.13;   44.000;    0.000;    0.000
 452.46;    9.500;    0.000;    0.000
 452.80;   30.500;    0.000;    0.000
 453.13;    6.500;    0.000;    0.000
 453.46;   32.500;    0.000;    0.000
 453.80;   -4.000;    0.000;    0.000
 454.13;   20.000;    0.000;    0.000
 454.46;   60.000;    0.000;    0.000
 454.80;  -21.500;    0.000;    0.000
 455.13;   17.500;    0.000;    0.000
 455.46;   43.500;    0.000;    0.000
 455.79;   54.000;    0.000;    0.000
 456.13;   17.500;    0.000;    0.000
 456.46;   51.000;    0.000;    0.000
 456.79;   16.500;    0.000;    0.000
 457.13;   23.500;    0.000;    0.000
 457.46;   39.500;    0.000;    0.000
 457.79;   44.000;    0.000;    0.000
 458.13;   17.000;    0.000;    0.000
 458.46;   31.500;    0.000;    0.000
 458.79;   52.000;    0.000;    0.000
 459.13;   70.000;    0.000;    0.000
 459.46;   13.500;    0.000;    0.000
 459.79;   60.500;    0.000;    0.000
 460.12;   38.500;    0.000;    0.000
 460.46;   27.000;    0.000;    0.000
 460.79;   16.500;    0.000;    0.000
 461.12;   31.000;    0.000;    0.000
 461.46;   22.000;    0.000;    0.000
 461.79;   32.000;    0.000;    0.000
 462.12;   62.000;    0.000;    0.000
 462.45;   35.000;    0.000;    0.000
 462.79;   41.000;    0.000;    0.000
 463.12;   23.000;    0.000;    0.000
 463.45;   47.500;    0.000;    0.000
 463.79;   11.000;    0.000;    0.000
 464.12;   95.000;    0.000;    0.000
 464.45;   42.500;    0.000;    0.000
 464.78;   79.000;    0.000;    0.000
 465.12;   50.000;    0.000;    0.000
 465.45;   40.000;    0.000;    0.000
 465.78;   86.500;    0.000;    0.000
 466.12;   58.500;    0.000;    0.000
 466.45;   23.500;    0.000;    0.000
 466.78;   61.500;    0.000;    0.000
 467.11;   90.000;    0.000;    0.000
 467.45;   50.000;    0.000;    0.000
 467.78;   66.000;    0.000;    0.000
 468.11;   43.500;    0.000;    0.000
 468.44;   38.000;    0.000;    0.000
 468.78;   12.500;    0.000;    0.000
 469.11;   83.000;    0.000;    0.000
 469.44;    4.500;    0.000;    0.000
 469.77;   10.500;    0.000;    0.000
 470.11;   43.500;    0.000;    0.000
 470.44;   48.500;    0.000;    0.000
 470.77;  115.000;    0.000;    0.000
 471.11;   38.500;    0.000;    0.000
 471.44;  122.500;    0.000;    0.000
 471.77;   89.500;    0.000;    0.000
 472.10;   16.500;    0.000;    0.000
 472.44;   89.500;    0.000;    0.000
 472.77;   48.000;    0.000;    0.000
 473.10;   65.000;    0.000;    0.000
 473.43;  110.000;    0.000;    0.000
 473.77;   65.000;    0.000;    0.000
 474.10;   78.500;    0.000;    0.000
 474.43;   55.000;    0.000;    0.000
 474.76;   46.000;    0.000;    0.000
 475.10;  107.000;    0.000;    0.000
 475.43;   73.000;    0.000;    0.000
 475.76;   75.500;    0.000;    0.000
 476.09;   59.000;    0.000;    0.000
 476.42;   65.000;    0.000;    0.000
 476.76;   53.000;    0.000;    0.000
 477.09;  106.500;    0.000;    0.000
 477.42;   76.000;    0.000;    0.000
 477.75;   92.500;    0.000;    0.000
 478.09;   89.000;    0.000;    0.000
 478.42;  103.500;    0.000;    0.000
 478.75;   95.500;    0.000;    0.000
 479.08;  101.000;    0.000;    0.000
 479.42;  125.500;    0.000;    0.000
 479.75;   99.500;    0.000;    0.000
 480.08;   71.000;    0.000;    0.000
 480.41;  112.000;    0.000;    0.000
 480.75;  114.000;    0.000;    0.000
 481.08;  112.500;    0.000;    0.000
 481.41;  108.000;    0.000;    0.000
 481.74;  128.500;    0.000;    0.000
 482.07;   78.500;    0.000;    0.000
 482.41;   87.000;    0.000;    0.000
 482.74;  135.500;    0.000;    0.000
 483.07;   88.000;    0.000;    0.000
 483.40;  103.500;    0.000;    0.000
 483.73;  131.500;    0.000;    0.000
 484.07;  162.000;    0.000;    0.000
 484.40;  132.000;    0.000;    0.000
 484.73;  110.500;    0.000;    0.000
 485.06;  108.000;    0.000;    0.000
 485.40;  103.000;    0.000;    0.000
 485.73;   86.000;    0.000;    0.000
 486.06;  118.500;    0.000;    0.000
 486.39;  106.500;    0.000;    0.000
 486.72;   93.500;    0.000;    0.000
 487.06;  144.500;    0.000;    0.000
 487.39;  114.500;    0.000;    0.000
 487.72;  148.000;    0.000;    0.000
 488.05;  115.000;    0.000;    0.000
 488.38;  176.000;    0.000;    0.000
 488.72;  148.500;    0.000;    0.000
 489.05;  125.000;    0.000;    0.000
 489.38;   87.500;    0.000;    0.000
 489.71;  117.500;    0.000;    0.000
 490.04;  156.500;    0.000;    0.000
 490.38;  164.000;    0.000;    0.000
 490.71;  143.000;    0.000;    0.000
 491.04;  190.500;    0.000;    0.000
 491.37;  156.500;    0.000;    0.000
 491.70;  145.000;    0.000;    0.000
 492.03;  130.500;    0.000;    0.000
 492.37;  126.500;    0.000;    0.000
 492.70;  112.500;    0.000;    0.000
 493.03;  176.000;    0.000;    0.000
 493.36;  176.000;    0.000;    0.000
 493.69;  173.000;    0.000;    0.000
 494.03;   96.000;    0.000;    0.000
 494.36;  152.500;    0.000;    0.000
 494.69;  165.500;    0.000;    0.000
 495.02;  165.000;    0.000;    0.000
 495.35;  189.000;    0.000;    0.000
 495.68;  185.000;    0.000;    0.000
 496.02;  208.000;    0.000;    0.000
 496.35;  138.500;    0.000;    0.000
 496.68;  213.000;    0.000;    0.000
 497.01;  175.500;    0.000;    0.000
 497.34;  165.000;    0.000;    0.000
 497.67;  168.000;    0.000;    0.000
 498.01;  143.000;    0.000;    0.000
 498.34;  140.500;    0.000;    0.000
 498.67;  130.000;    0.000;    0.000
 499.00;  183.500;    0.000;    0.000
 499.33;  157.500;    0.000;    0.000
 499.66;  228.500;    0.000;    0.000
 500.00;  176.000;    0.000;    0.000
 500.33;  165.000;    0.000;    0.000
 500.66;  179.000;    0.000;    0.000
 500.99;  175.000;    0.000;    0.000
 501.32;  163.500;    0.000;    0.000
 501.65;  188.000;    0.000;    0.000
 501.98;  112.000;    0.000;    0.000
 502.32;  200.500;    0.000;    0.000
 502.65;  154.000;    0.000;    0.000
 502.98;  165.000;    0.000;    0.000
 503.31;  181.500;    0.000;    0.000
 503.64;  189.000;    0.000;    0.000
 503.97;  163.500;    0.000;    0.000
 504.30;  188.000;    0.000;    0.000
 504.64;  218.000;    0.000;    0.000
 504.97;  197.500;    0.000;    0.000
 505.30;  194.000;    0.000;    0.000
 505.63;  161.000;    0.000;    0.000
 505.96;  211.500;    0.000;    0.000
 506.29;  201.000;    0.000;    0.000
 506.62;  190.500;    0.000;    0.000
 506.96;  203.000;    0.000;    0.000
 507.29;  165.000;    0.000;    0.000
 507.62;  162.000;    0.000;    0.000
 507.95;  229.000;    0.000;    0.000
 508.28;  155.500;    0.000;    0.000
 508.61;  199.000;    0.000;    0.000
 508.94;  193.500;    0.000;    0.000
 509.27;  211.500;    0.000;    0.000
 509.61;  199.500;    0.000;    0.000
 509.94;  191.500;    0.000;    0.000
 510.27;  215.500;    0.000;    0.000
 510.60;  192.500;    0.000;    0.000
 510.93;  239.500;    0.000;    0.000
 511.26;  173.000;    0.000;    0.000
 511.59;  176.000;    0.000;    0.000
 511.92;  228.500;    0.000;    0.000
 512.25;  174.500;    0.000;    0.000
 512.59;  222.500;    0.000;    0.000
 512.92;  213.500;    0.000;    0.000
 513.25;  235.500;    0.000;    0.000
 513.58;  199.500;    0.000;    0.000
 513.91;  202.000;    0.000;    0.000
 514.24;  226.000;    0.000;    0.000
 514.57;  212.500;    0.000;    0.000
 514.90;  200.000;    0.000;    0.000
 515.23;  244.500;    0.000;    0.000
 515.57;  198.000;    0.000;    0.000
 515.90;  198.500;    0.000;    0.000
 516.23;  204.000;    0.000;    0.000
 516.56;  191.500;    0.000;    0.000
 516.89;  255.000;    0.000;    0.000
 517.22;  225.500;    0.000;    0.000
 517.55;  264.500;    0.000;    0.000
 517.88;  262.500;    0.000;    0.000
 518.21;  220.500;    0.000;    0.000
 518.54;  215.000;    0.000;    0.000
 518.88;  244.000;    0.000;    0.000
 519.21;  216.500;    0.000;    0.000
 519.54;  171.000;    0.000;    0.000
 519.87;  294.000;    0.000;    0.000
 520.20;  213.500;    0.000;    0.000
 520.53;  250.500;    0.000;    0.000
 520.86;  283.500;    0.000;    0.000
 521.19;  310.000;    0.000;    0.000
 521.52;  279.000;    0.000;    0.000
 521.85;  248.500;    0.000;    0.000
 522.18;  248.500;    0.000;    0.000
 522.51;  274.000;    0.000;    0.000
 522.84;  275.000;    0.000;    0.000
 523.18;  287.000;    0.000;    0.000
 523.51;  259.000;    0.000;    0.000
 523.84;  269.000;    0.000;    0.000
 524.17;  279.000;    0.000;    0.000
 524.50;  262.000;    0.000;    0.000
 524.83;  315.500;    0.000;    0.000
 525.16;  275.000;    0.000;    0.000
 525.49;  271.500;    0.000;    0.000
 525.82;  281.000;    0.000;    0.000
 526.15;  303.000;    0.000;    0.000
 526.48;  323.500;    0.000;    0.000
 526.81;  296.500;    0.000;    0.000
 527.14;  306.500;    0.000;    0.000
 527.47;  313.500;    0.000;    0.000
 527.80;  350.000;    0.000;    0.000
 528.14;  304.000;    0.000;    0.000
 528.47;  326.000;    0.000;    0.000
 528.80;  315.000;    0.000;    0.000
 529.13;  344.500;    0.000;    0.000
 529.46;  302.000;    0.000;    0.000
 529.79;  319.500;    0.000;    0.000
 530.12;  340.000;    0.000;    0.000
 530.45;  386.000;    0.000;    0.000
 530.78;  326.500;    0.000;    0.000
 531.11;  361.500;    0.000;    0.000
 531.44;  343.500;    0.000;    0.000
 531.77;  335.500;    0.000;    0.000
 532.10;  394.000;    0.000;    0.000
 532.43;  356.500;    0.000;    0.000
 532.76;  397.000;    0.000;    0.000
 533.09;  399.000;    0.000;    0.000
 533.42;  386.500;    0.000;    0.000
 533.75;  379.500;    0.000;    0.000
 534.08;  403.000;    0.000;    0.000
 534.41;  437.000;    0.000;    0.000
 534.74;  412.500;    0.000;    0.000
 535.07;  409.000;    0.000;    0.000
 535.40;  401.000;    0.000;    0.000
 535.73;  460.000;    0.000;    0.000
 536.06;  391.500;    0.000;    0.000
 536.39;  365.000;    0.000;    0.000
 536.73;  494.500;    0.000;    0.000
 537.06;  376.000;    0.000;    0.000
 537.39;  440.000;    0.000;    0.000
 537.72;  425.500;    0.000;    0.000
 538.05;  509.500;    0.000;    0.000
 538.38;  494.000;    0.000;    0.000
 538.71;  484.000;    0.000;    0.000
 539.04;  442.500;    0.000;    0.000
 539.37;  441.000;    0.000;    0.000
 539.70;  458.500;    0.000;    0.000
 540.03;  495.000;    0.000;    0.000
 540.36;  462.500;    0.000;    0.000
 540.69;  550.500;    0.000;    0.000
 541.02;  539.000;    0.000;    0.000
 541.35;  534.500;    0.000;    0.000
 541.68;  520.000;    0.000;    0.000
 542.01;  499.500;    0.000;    0.000
 542.34;  542.500;    0.000;    0.000
 542.67;  505.500;    0.000;    0.000
 543.00;  537.000;    0.000;    0.000
 543.33;  594.000;    0.000;    0.000
 543.66;  566.500;    0.000;    0.000
 543.99;  616.000;    0.000;    0.000
 544.32;  618.000;    0.000;    0.000
 544.65;  574.500;    0.000;    0.000
 544.98;  616.500;    0.000;    0.000
 545.31;  579.000;    0.000;    0.000
 545.64;  557.500;    0.000;    0.000
 545.97;  591.000;    0.000;    0.000
 546.30;  608.500;    0.000;    0.000
 546.63;  582.500;    0.000;    0.000
 546.96;  691.000;    0.000;    0.000
 547.29;  653.000;    0.000;    0.000
 547.62;  608.000;    0.000;    0.000
 547.95;  666.500;    0.000;    0.000
 548.28;  682.500;    0.000;    0.000
 548.61;  674.500;    0.000;    0.000
 548.94;  708.000;    0.000;    0.000
 549.27;  704.000;    0.000;    0.000
 549.60;  713.500;    0.000;    0.000
 549.92;  742.000;    0.000;    0.000
 550.25;  825.000;    0.000;    0.000
 550.58;  757.000;    0.000;    0.000
 550.91;  764.500;    0.000;    0.000
 551.24;  785.500;    0.000;    0.000
 551.57;  778.500;    0.000;    0.000
 551.90;  814.500;    0.000;    0.000
 552.23;  803.000;    0.000;    0.000
 552.56;  845.500;    0.000;    0.000
 552.89;  786.500;    0.000;    0.000
 553.22;  823.000;    0.000;    0.000
 553.55;  832.000;    0.000;    0.000
 553.88;  855.500;    0.000;    0.000
 554.21;  927.500;    0.000;    0.000
 554.54;  911.000;    0.000;    0.000
 554.87;  842.000;    0.000;    0.000
 555.20;  918.000;    0.000;    0.000
 555.53;  941.000;    0.000;    0.000
 555.86;  930.000;    0.000;    0.000
 556.19;  960.000;    0.000;    0.000
 556.52;  927.000;    0.000;    0.000
 556.85;  970.500;    0.000;    0.000
 557.18; 1066.500;    0.000;    0.000
 557.51; 1027.500;    0.000;    0.000
 557.84; 1021.000;    0.000;    0.000
 558.16; 1097.000;    0.000;    0.000
 558.49; 1106.000;    0.000;    0.000
 558.82; 1065.000;    0.000;    0.000
 559.15; 1098.500;    0.000;    0.000
 559.48; 1065.000;    0.000;    0.000
 559.81; 1157.500;    0.000;    0.000
 560.14; 1157.500;    0.000;    0.000
 560.47; 1161.500;    0.000;    0.000
 560.80; 1184.000;    0.000;    0.000
 561.13; 1199.500;    0.000;    0.000
 561.46; 1241.000;    0.000;    0.000
 561.79; 1230.500;    0.000;    0.000
 562.12; 1307.000;    0.000;    0.000
 562.45; 1297.000;    0.000;    0.000
 562.78; 1260.500;    0.000;    0.000
 563.10; 1299.500;    0.000;    0.000
 563.43; 1328.500;    0.000;    0.000
 563.76; 1359.500;    0.000;    0.000
 564.09; 1422.000;    0.000;    0.000
 564.42; 1418.000;    0.000;    0.000
 564.75; 1480.000;    0.000;    0.000
 565.08; 1504.000;    0.000;    0.000
 565.41; 1476.000;    0.000;    0.000
 565.74; 1448.000;    0.000;    0.000
 566.07; 1477.500;    0.000;    0.000
 566.40; 1539.000;    0.000;    0.000
 566.73; 1572.500;    0.000;    0.000
 567.06; 1551.000;    0.000;    0.000
 567.38; 1498.500;    0.000;    0.000
 567.71; 1569.000;    0.000;    0.000
 568.04; 1639.000;    0.000;    0.000
 568.37; 1692.500;    0.000;    0.000
 568.70; 1654.000;    0.000;    0.000
 569.03; 1697.000;    0.000;    0.000
 569.36; 1691.000;    0.000;    0.000
 569.69; 1729.500;    0.000;    0.000
 570.02; 1703.500;    0.000;    0.000
 570.35; 1765.000;    0.000;    0.000
 570.67; 1799.000;    0.000;    0.000
 571.00; 1893.500;    0.000;    0.000
 571.33; 1865.000;    0.000;    0.000
 571.66; 1893.000;    0.000;    0.000
 571.99; 1915.000;    0.000;    0.000
 572.32; 1975.500;    0.000;    0.000
 572.65; 1994.500;    0.000;    0.000
 572.98; 1960.500;    0.000;    0.000
 573.31; 2004.000;    0.000;    0.000
 573.63; 1995.500;    0.000;    0.000
 573.96; 2069.000;    0.000;    0.000
 574.29; 1994.000;    0.000;    0.000
 574.62; 2127.000;    0.000;    0.000
 574.95; 2093.000;    0.000;    0.000
 575.28; 2168.500;    0.000;    0.000
 575.61; 2212.500;    0.000;    0.000
 575.94; 2185.500;    0.000;    0.000
 576.27; 2252.500;    0.000;    0.000
 576.59; 2291.000;    0.000;    0.000
 576.92; 2276.000;    0.000;    0.000
 577.25; 2401.000;    0.000;    0.000
 577.58; 2401.500;    0.000;    0.000
 577.91; 2304.000;    0.000;    0.000
 578.24; 2368.500;    0.000;    0.000
 578.57; 2408.500;    0.000;    0.000
 578.89; 2443.500;    0.000;    0.000
 579.22; 2561.000;    0.000;    0.000
 579.55; 2585.000;    0.000;    0.000
 579.88; 2591.000;    0.000;    0.000
 580.21; 2659.000;    0.000;    0.000
 580.54; 2625.000;    0.000;    0.000
 580.87; 2693.500;    0.000;    0.000
 581.20; 2550.000;    0.000;    0.000
 581.52; 2602.500;    0.000;    0.000
 581.85; 2737.000;    0.000;    0.000
 582.18; 2808.500;    0.000;    0.000
 582.51; 2910.000;    0.000;    0.000
 582.84; 2815.000;    0.000;    0.000
 583.17; 2792.000;    0.000;    0.000
 583.49; 2970.500;    0.000;    0.000
 583.82; 2968.000;    0.000;    0.000
 584.15; 2996.000;    0.000;    0.000
 584.48; 2936.000;    0.000;    0.000
 584.81; 2995.000;    0.000;    0.000
 585.14; 3100.500;    0.000;    0.000
 585.47; 3151.000;    0.000;    0.000
 585.79; 3228.500;    0.000;    0.000
 586.12; 3226.000;    0.000;    0.000
 586.45; 3194.000;    0.000;    0.000
 586.78; 3208.000;    0.000;    0.000
 587.11; 3212.000;    0.000;    0.000
 587.44; 3300.500;    0.000;    0.000
 587.76; 3293.500;    0.000;    0.000
 588.09; 3275.000;    0.000;    0.000
 588.42; 3409.500;    0.000;    0.000
 588.75; 3477.000;    0.000;    0.000
 589.08; 3478.000;    0.000;    0.000
 589.41; 3558.000;    0.000;    0.000
 589.73; 3507.000;    0.000;    0.000
 590.06; 3694.500;    0.000;    0.000
 590.39; 3667.000;    0.000;    0.000
 590.72; 3629.000;    0.000;    0.000
 591.05; 3799.500;    0.000;    0.000
 591.37; 3792.500;    0.000;    0.000
 591.70; 3728.000;    0.000;    0.000
 592.03; 3738.500;    0.000;    0.000
 592.36; 3760.000;    0.000;    0.000
 592.69; 3829.500;    0.000;    0.000
 593.02; 3892.000;    0.000;    0.000
 593.34; 3969.000;    0.000;    0.000
 593.67; 3956.500;    0.000;    0.000
 594.00; 3966.000;    0.000;    0.000
 594.33; 4012.500;    0.000;    0.000
 594.66; 4090.000;    0.000;    0.000
 594.98; 4122.000;    0.000;    0.000
 595.31; 4207.500;    0.000;    0.000
 595.64; 4260.500;    0.000;    0.000
 595.97; 4174.000;    0.000;    0.000
 596.30; 4266.500;    0.000;    0.000
 596.62; 4192.000;    0.000;    0.000
 596.95; 4435.500;    0.000;    0.000
 597.28; 4430.000;    0.000;    0.000
 597.61; 4395.500;    0.000;    0.000
 597.94; 4637.500;    0.000;    0.000
 598.26; 4692.500;    0.000;    0.000
 598.59; 4439.000;    0.000;    0.000
 598.92; 4512.500;    0.000;    0.000
 599.25; 4519.500;    0.000;    0.000
 599.58; 4537.000;    0.000;    0.000
 599.90; 4651.000;    0.000;    0.000
 600.23; 4770.000;    0.000;    0.000
 600.56; 4782.500;    0.000;    0.000
 600.89; 4678.500;    0.000;    0.000
 601.21; 4654.500;    0.000;    0.000
 601.54; 4657.000;    0.000;    0.000
 601.87; 4786.000;    0.000;    0.000
 602.20; 4755.500;    0.000;    0.000
 602.53; 4775.500;    0.000;    0.000
 602.85; 4840.000;    0.000;    0.000
 603.18; 4891.500;    0.000;    0.000
 603.51; 4876.500;    0.000;    0.000
 603.84; 5015.000;    0.000;    0.000
 604.16; 4986.000;    0.000;    0.000
 604.49; 4866.000;    0.000;    0.000
 604.82; 4943.000;    0.000;    0.000
 605.15; 5082.500;    0.000;    0.000
 605.48; 5098.000;    0.000;    0.000
 605.80; 4979.000;    0.000;    0.000
 606.13; 5154.500;    0.000;    0.000
 606.46; 5107.500;    0.000;    0.000
 606.79; 5116.500;    0.000;    0.000
 607.11; 5203.000;    0.000;    0.000
 607.44; 5158.000;    0.000;    0.000
 607.77; 5360.000;    0.000;    0.000
 608.10; 5118.000;    0.000;    0.000
 608.42; 5162.000;    0.000;    0.000
 608.75; 5143.000;    0.000;    0.000
 609.08; 5052.000;    0.000;    0.000
 609.41; 5130.500;    0.000;    0.000
 609.73; 5105.000;    0.000;    0.000
 610.06; 5120.500;    0.000;    0.000
 610.39; 5076.500;    0.000;    0.000
 610.72; 5090.500;    0.000;    0.000
 611.04; 5265.500;    0.000;    0.000
 611.37; 5295.000;    0.000;    0.000
 611.70; 5260.000;    0.000;    0.000
 612.03; 5315.500;    0.000;    0.000
 612.35; 5137.000;    0.000;    0.000
 612.68; 5172.500;    0.000;    0.000
 613.01; 5246.500;    0.000;    0.000
 613.33; 5467.500;    0.000;    0.000
 613.66; 5392.000;    0.000;    0.000
 613.99; 5539.000;    0.000;    0.000
 614.32; 5414.000;    0.000;    0.000
 614.64; 5379.000;    0.000;    0.000
 614.97; 5363.000;    0.000;    0.000
 615.30; 5484.500;    0.000;    0.000
 615.63; 5378.500;    0.000;    0.000
 615.95; 5404.500;    0.000;    0.000
 616.28; 5419.500;    0.000;    0.000
 616.61; 5461.000;    0.000;    0.000
 616.93; 5420.500;    0.000;    0.000
 617.26; 5496.000;    0.000;    0.000
 617.59; 5346.500;    0.000;    0.000
 617.92; 5559.000;    0.000;    0.000
 618.24; 5539.500;    0.000;    0.000
 618.57; 5529.000;    0.000;    0.000
 618.90; 5505.000;    0.000;    0.000
 619.22; 5445.500;    0.000;    0.000
 619.55; 5536.500;    0.000;    0.000
 619.88; 5508.000;    0.000;    0.000
 620.21; 5545.500;    0.000;    0.000
 620.53; 5671.000;    0.000;    0.000
 620.86; 5557.000;    0.000;    0.000
 621.19; 5528.000;    0.000;    0.000
 621.51; 5527.000;    0.000;    0.000
 621.84; 5585.500;    0.000;    0.000
 622.17; 5599.500;    0.000;    0.000
 622.50; 5601.000;    0.000;    0.000
 622.82; 5587.000;    0.000;    0.000
 623.15; 5574.000;    0.000;    0.000
 623.48; 5631.500;    0.000;    0.000
 623.80; 5664.000;    0.000;    0.000
 624.13; 5670.500;    0.000;    0.000
 624.46; 5605.000;    0.000;    0.000
 624.78; 5486.000;    0.000;    0.000
 625.11; 5780.000;    0.000;    0.000
 625.44; 5780.000;    0.000;    0.000
 625.76; 5725.000;    0.000;    0.000
 626.09; 5740.500;    0.000;    0.000
 626.42; 5743.500;    0.000;    0.000
 626.74; 5797.000;    0.000;    0.000
 627.07; 5762.500;    0.000;    0.000
 627.40; 5676.500;    0.000;    0.000
 627.73; 5704.000;    0.000;    0.000
 628.05; 5705.500;    0.000;    0.000
 628.38; 5626.000;    0.000;    0.000
 628.71; 5671.500;    0.000;    0.000
 629.03; 5732.000;    0.000;    0.000
 629.36; 5724.000;    0.000;    0.000
 629.69; 5549.500;    0.000;    0.000
 630.01; 5663.000;    0.000;    0.000
 630.34; 5731.000;    0.000;    0.000
 630.67; 5721.000;    0.000;    0.000
 630.99; 5609.500;    0.000;    0.000
 631.32; 5652.000;    0.000;    0.000
 631.65; 5788.000;    0.000;    0.000
 631.97; 5777.500;    0.000;    0.000
 632.30; 5827.000;    0.000;    0.000
 632.63; 5865.500;    0.000;    0.000
 632.95; 5752.500;    0.000;    0.000
 633.28; 5778.000;    0.000;    0.000
 633.60; 5883.000;    0.000;    0.000
 633.93; 5831.500;    0.000;    0.000
 634.26; 5813.500;    0.000;    0.000
 634.58; 5873.500;    0.000;    0.000
 634.91; 5901.500;    0.000;    0.000
 635.24; 6061.500;    0.000;    0.000
 635.56; 6089.000;    0.000;    0.000
 635.89; 5906.000;    0.000;    0.000
 636.22; 6034.000;    0.000;    0.000
 636.54; 5997.500;    0.000;    0.000
 636.87; 5977.500;    0.000;    0.000
 637.20; 5967.500;    0.000;    0.000
 637.52; 6171.500;    0.000;    0.000
 637.85; 6038.000;    0.000;    0.000
 638.17; 6256.000;    0.000;    0.000
 638.50; 6256.500;    0.000;    0.000
 638.83; 6300.500;    0.000;    0.000
 639.15; 6538.500;    0.000;    0.000
 639.48; 6402.500;    0.000;    0.000
 639.81; 6353.000;    0.000;    0.000
 640.13; 6496.500;    0.000;    0.000
 640.46; 6509.500;    0.000;    0.000
 640.79; 6539.000;    0.000;    0.000
 641.11; 6581.500;    0.000;    0.000
 641.44; 6578.000;    0.000;    0.000
 641.76; 6763.000;    0.000;    0.000
 642.09; 6769.500;    0.000;    0.000
 642.42; 6662.500;    0.000;    0.000
 642.74; 6614.000;    0.000;    0.000
 643.07; 6820.000;    0.000;    0.000
 643.39; 6914.000;    0.000;    0.000
 643.72; 6941.000;    0.000;    0.000
 644.05; 7025.000;    0.000;    0.000
 644.37; 7109.000;    0.000;    0.000
 644.70; 7105.500;    0.000;    0.000
 645.03; 7042.000;    0.000;    0.000
 645.35; 7228.000;    0.000;    0.000
 645.68; 7387.500;    0.000;    0.000
 646.00; 7457.000;    0.000;    0.000
 646.33; 7522.000;    0.000;    0.000
 646.66; 7405.500;    0.000;    0.000
 646.98; 7529.000;    0.000;    0.000
 647.31; 7709.500;    0.000;    0.000
 647.63; 7781.500;    0.000;    0.000
 647.96; 7831.500;    0.000;    0.000
 648.29; 7933.500;    0.000;    0.000
 648.61; 7908.000;    0.000;    0.000
 648.94; 7835.500;    0.000;    0.000
 649.26; 7983.500;    0.000;    0.000
 649.59; 8380.000;    0.000;    0.000
 649.92; 8157.500;    0.000;    0.000
 650.24; 8161.000;    0.000;    0.000
 650.57; 8063.000;    0.000;    0.000
 650.89; 8113.500;    0.000;    0.000
 651.22; 8222.500;    0.000;    0.000
 651.54; 7995.500;    0.000;    0.000
 651.87; 7975.000;    0.000;    0.000
 652.20; 7950.500;    0.000;    0.000
 652.52; 7917.500;    0.000;    0.000
 652.85; 7954.500;    0.000;    0.000
 653.17; 8183.500;    0.000;    0.000
 653.50; 8012.500;    0.000;    0.000
 653.82; 8171.500;    0.000;    0.000
 654.15; 8258.500;    0.000;    0.000
 654.48; 8027.000;    0.000;    0.000
 654.80; 8142.500;    0.000;    0.000
 655.13; 8251.000;    0.000;    0.000
 655.45; 8368.500;    0.000;    0.000
 655.78; 8264.000;    0.000;    0.000
 656.10; 8222.500;    0.000;    0.000
 656.43; 8721.500;    0.000;    0.000
 656.76; 8530.500;    0.000;    0.000
 657.08; 8473.500;    0.000;    0.000
 657.41; 8349.000;    0.000;    0.000
 657.73; 8385.500;    0.000;    0.000
 658.06; 8676.500;    0.000;    0.000
 658.38; 8540.000;    0.000;    0.000
 658.71; 8894.000;    0.000;    0.000
 659.03; 8741.000;    0.000;    0.000
 659.36; 8768.500;    0.000;    0.000
 659.69; 9007.500;    0.000;    0.000
 660.01; 8845.000;    0.000;    0.000
 660.34; 9044.500;    0.000;    0.000
 660.66; 9253.500;    0.000;    0.000
 660.99; 9128.500;    0.000;    0.000
 661.31; 9101.500;    0.000;    0.000
 661.64; 9206.000;    0.000;    0.000
 661.96; 9383.500;    0.000;    0.000
 662.29; 9502.000;    0.000;    0.000
 662.61; 9600.000;    0.000;    0.000
 662.94; 9724.000;    0.000;    0.000
 663.27; 9732.000;    0.000;    0.000
 663.59; 9796.500;    0.000;    0.000
 663.92; 9820.000;    0.000;    0.000
 664.24; 9986.500;    0.000;    0.000
 664.57;10133.000;    0.000;    0.000
 664.89;10422.500;    0.000;    0.000
 665.22;10643.500;    0.000;    0.000
 665.54;10331.500;    0.000;    0.000
 665.87;10774.000;    0.000;    0.000
 666.19;10827.000;    0.000;    0.000
 666.52;11029.000;    0.000;    0.000
 666.84;11003.000;    0.000;    0.000
 667.17;11074.500;    0.000;    0.000
 667.49;11153.500;    0.000;    0.000
 667.82;11436.500;    0.000;    0.000
 668.14;11659.000;    0.000;    0.000
 668.47;11881.500;    0.000;    0.000
 668.79;11721.000;    0.000;    0.000
 669.12;12251.500;    0.000;    0.000
 669.44;12333.000;    0.000;    0.000
 669.77;12587.500;    0.000;    0.000
 670.09;12598.000;    0.000;    0.000
 670.42;12771.500;    0.000;    0.000
 670.74;13319.000;    0.000;    0.000
 671.07;13225.500;    0.000;    0.000
 671.39;13116.000;    0.000;    0.000
 671.72;13387.000;    0.000;    0.000
 672.04;13700.000;    0.000;    0.000
 672.37;13871.500;    0.000;    0.000
 672.69;13748.000;    0.000;    0.000
 673.02;13847.000;    0.000;    0.000
 673.34;14036.000;    0.000;    0.000
 673.67;14315.000;    0.000;    0.000
 673.99;14446.500;    0.000;    0.000
 674.32;14489.000;    0.000;    0.000
 674.64;14810.000;    0.000;    0.000
 674.97;14727.000;    0.000;    0.000
 675.29;14988.000;    0.000;    0.000
 675.62;15250.500;    0.000;    0.000
 675.94;14932.000;    0.000;    0.000
 676.27;15175.000;    0.000;    0.000
 676.59;15214.000;    0.000;    0.000
 676.92;15365.000;    0.000;    0.000
 677.24;15367.000;    0.000;    0.000
 677.57;15501.000;    0.000;    0.000
 677.89;15560.000;    0.000;    0.000
 678.22;16200.000;    0.000;    0.000
 678.54;16157.000;    0.000;    0.000
 678.87;15968.500;    0.000;    0.000
 679.19;16095.000;    0.000;    0.000
 679.52;16117.000;    0.000;    0.000
 679.84;16553.500;    0.000;    0.000
 680.16;17059.500;    0.000;    0.000
 680.49;17206.000;    0.000;    0.000
 680.81;17326.500;    0.000;    0.000
 681.14;17794.000;    0.000;    0.000
 681.46;17306.500;    0.000;    0.000
 681.79;17308.500;    0.000;    0.000
 682.11;16967.000;    0.000;    0.000
 682.44;17086.500;    0.000;    0.000
 682.76;17480.000;    0.000;    0.000
 683.09;17620.500;    0.000;    0.000
 683.41;17744.500;    0.000;    0.000
 683.74;17875.000;    0.000;    0.000
 684.06;17776.500;    0.000;    0.000
 684.38;18045.500;    0.000;    0.000
 684.71;17493.500;    0.000;    0.000
 685.03;17846.500;    0.000;    0.000
 685.36;18147.500;    0.000;    0.000
 685.68;18352.500;    0.000;    0.000
 686.01;18120.000;    0.000;    0.000
 686.33;18102.500;    0.000;    0.000
 686.66;18295.500;    0.000;    0.000
 686.98;18346.500;    0.000;    0.000
 687.30;18216.000;    0.000;    0.000
 687.63;18238.500;    0.000;    0.000
 687.95;18245.500;    0.000;    0.000
 688.28;17998.000;    0.000;    0.000
 688.60;18385.000;    0.000;    0.000
 688.93;18443.500;    0.000;    0.000
 689.25;19022.500;    0.000;    0.000
 689.57;19137.500;    0.000;    0.000
 689.90;18810.000;    0.000;    0.000
 690.22;18806.000;    0.000;    0.000
 690.55;19036.500;    0.000;    0.000
 690.87;19590.500;    0.000;    0.000
 691.20;19974.500;    0.000;    0.000
 691.52;19824.500;    0.000;    0.000
 691.84;19896.000;    0.000;    0.000
 692.17;19851.500;    0.000;    0.000
 692.49;20474.500;    0.000;    0.000
 692.82;20482.500;    0.000;    0.000
 693.14;20384.000;    0.000;    0.000
 693.46;20574.500;    0.000;    0.000
 693.79;20405.500;    0.000;    0.000
 694.11;20182.000;    0.000;    0.000
 694.44;20016.000;    0.000;    0.000
 694.76;20738.500;    0.000;    0.000
 695.08;21097.500;    0.000;    0.000
 695.41;21314.500;    0.000;    0.000
 695.73;21139.000;    0.000;    0.000
 696.06;21445.500;    0.000;    0.000
 696.38;21785.000;    0.000;    0.000
 696.70;21504.000;    0.000;    0.000
 697.03;21732.000;    0.000;    0.000
 697.35;22372.000;    0.000;    0.000
 697.68;21629.500;    0.000;    0.000
 698.00;22187.000;    0.000;    0.000
 698.32;21669.000;    0.000;    0.000
 698.65;21683.500;    0.000;    0.000
 698.97;21736.000;    0.000;    0.000
 699.30;21538.500;    0.000;    0.000
 699.62;22138.500;    0.000;    0.000
 699.94;22730.000;    0.000;    0.000
 700.27;22692.000;    0.000;    0.000
 700.59;22371.500;    0.000;    0.000
 700.91;22257.500;    0.000;    0.000
 701.24;21964.500;    0.000;    0.000
 701.56;21940.000;    0.000;    0.000
 701.89;21994.500;    0.000;    0.000
 702.21;21986.000;    0.000;    0.000
 702.53;21754.000;    0.000;    0.000
 702.86;21952.000;    0.000;    0.000
 703.18;22799.500;    0.000;    0.000
 703.50;22480.000;    0.000;    0.000
 703.83;23201.500;    0.000;    0.000
 704.15;21858.000;    0.000;    0.000
 704.48;22463.500;    0.000;    0.000
 704.80;22349.000;    0.000;    0.000
 705.12;22211.500;    0.000;    0.000
 705.45;21765.500;    0.000;    0.000
 705.77;21695.500;    0.000;    0.000
 706.09;21785.500;    0.000;    0.000
 706.42;21716.000;    0.000;    0.000
 706.74;22003.500;    0.000;    0.000
 707.06;21806.500;    0.000;    0.000
 707.39;22224.000;    0.000;    0.000
 707.71;21886.500;    0.000;    0.000
 708.03;21896.000;    0.000;    0.000
 708.36;21462.000;    0.000;    0.000
 708.68;21105.000;    0.000;    0.000
 709.01;20654.500;    0.000;    0.000
 709.33;20821.000;    0.000;    0.000
 709.65;21030.500;    0.000;    0.000
 709.98;20881.000;    0.000;    0.000
 710.30;21254.000;    0.000;    0.000
 710.62;20270.500;    0.000;    0.000
 710.95;19979.000;    0.000;    0.000
 711.27;20215.000;    0.000;    0.000
 711.59;19635.000;    0.000;    0.000
 711.92;19341.000;    0.000;    0.000
 712.24;18881.000;    0.000;    0.000
 712.56;18538.500;    0.000;    0.000
 712.89;19049.000;    0.000;    0.000
 713.21;18952.500;    0.000;    0.000
 713.53;18744.000;    0.000;    0.000
 713.86;17936.500;    0.000;    0.000
 714.18;17826.500;    0.000;    0.000
 714.50;17961.500;    0.000;    0.000
 714.82;17902.500;    0.000;    0.000
 715.15;17691.000;    0.000;    0.000
 715.47;17412.500;    0.000;    0.000
 715.79;17184.000;    0.000;    0.000
 716.12;16945.000;    0.000;    0.000
 716.44;16498.500;    0.000;    0.000
 716.76;16311.000;    0.000;    0.000
 717.09;16505.000;    0.000;    0.000
 717.41;16623.500;    0.000;    0.000
 717.73;16038.500;    0.000;    0.000
 718.06;15827.500;    0.000;    0.000
 718.38;15816.500;    0.000;    0.000
 718.70;15442.000;    0.000;    0.000
 719.03;15522.500;    0.000;    0.000
 719.35;14800.500;    0.000;    0.000
 719.67;14246.000;    0.000;    0.000
 719.99;14090.500;    0.000;    0.000
 720.32;14106.000;    0.000;    0.000
 720.64;14048.000;    0.000;    0.000
 720.96;14124.000;    0.000;    0.000
 721.29;13829.500;    0.000;    0.000
 721.61;13248.000;    0.000;    0.000
 721.93;13223.500;    0.000;    0.000
 722.25;13486.000;    0.000;    0.000
 722.58;12840.500;    0.000;    0.000
 722.90;12744.000;    0.000;    0.000
 723.22;12784.500;    0.000;    0.000
 723.55;12558.500;    0.000;    0.000
 723.87;12726.500;    0.000;    0.000
 724.19;12659.500;    0.000;    0.000
 724.51;12848.500;    0.000;    0.000
 724.84;12766.000;    0.000;    0.000
 725.16;12283.000;    0.000;    0.000
 725.48;12101.500;    0.000;    0.000
 725.81;12400.000;    0.000;    0.000
 726.13;12213.500;    0.000;    0.000
 726.45;11743.500;    0.000;    0.000
 726.77;11669.500;    0.000;    0.000
 727.10;11451.500;    0.000;    0.000
 727.42;11507.000;    0.000;    0.000
 727.74;11540.500;    0.000;    0.000
 728.06;11425.000;    0.000;    0.000
 728.39;11146.000;    0.000;    0.000
 728.71;11068.500;    0.000;    0.000
 729.03;11009.000;    0.000;    0.000
 729.35;10865.000;    0.000;    0.000
 729.68;10885.000;    0.000;    0.000
 730.00;10414.000;    0.000;    0.000
 730.32;10616.000;    0.000;    0.000
 730.64;10460.500;    0.000;    0.000
 730.97;10219.000;    0.000;    0.000
 731.29; 9981.500;    0.000;    0.000
 731.61; 9825.500;    0.000;    0.000
 731.93; 9598.000;    0.000;    0.000
 732.26; 9344.000;    0.000;    0.000
 732.58; 9431.500;    0.000;    0.000
 732.90; 9302.500;    0.000;    0.000
 733.22; 9222.000;    0.000;    0.000
 733.55; 9119.500;    0.000;    0.000
 733.87; 8814.000;    0.000;    0.000
 734.19; 8711.500;    0.000;    0.000
 734.51; 8606.000;    0.000;    0.000
 734.84; 8342.500;    0.000;    0.000
 735.16; 8301.000;    0.000;    0.000
 735.48; 8015.500;    0.000;    0.000
 735.80; 7840.500;    0.000;    0.000
 736.13; 7435.500;    0.000;    0.000
 736.45; 7283.500;    0.000;    0.000
 736.77; 7270.000;    0.000;    0.000
 737.09; 7063.500;    0.000;    0.000
 737.41; 6765.500;    0.000;    0.000
 737.74; 6957.000;    0.000;    0.000
 738.06; 6511.500;    0.000;    0.000
 738.38; 6485.000;    0.000;    0.000
 738.70; 6376.500;    0.000;    0.000
 739.03; 6304.500;    0.000;    0.000
 739.35; 6248.000;    0.000;    0.000
 739.67; 5920.500;    0.000;    0.000
 739.99; 6070.000;    0.000;    0.000
 740.31; 5893.500;    0.000;    0.000
 740.64; 5879.500;    0.000;    0.000
 740.96; 5733.000;    0.000;    0.000
 741.28; 5663.000;    0.000;    0.000
 741.60; 5459.000;    0.000;    0.000
 741.92; 5443.000;    0.000;    0.000
 742.25; 5449.000;    0.000;    0.000
 742.57; 5447.000;    0.000;    0.000
 742.89; 5496.500;    0.000;    0.000
 743.21; 5699.000;    0.000;    0.000
 743.53; 5588.500;    0.000;    0.000
 743.86; 5638.000;    0.000;    0.000
 744.18; 5558.500;    0.000;    0.000
 744.50; 5401.500;    0.000;    0.000
 744.82; 5501.500;    0.000;    0.000
 745.14; 5347.500;    0.000;    0.000
 745.47; 5297.000;    0.000;    0.000
 745.79; 5338.000;    0.000;    0.000
 746.11; 5323.500;    0.000;    0.000
 746.43; 5259.500;    0.000;    0.000
 746.75; 5244.500;    0.000;    0.000
 747.08; 5106.000;    0.000;    0.000
 747.40; 5066.000;    0.000;    0.000
 747.72; 5144.500;    0.000;    0.000
 748.04; 5039.500;    0.000;    0.000
 748.36; 4918.000;    0.000;    0.000
 748.68; 4980.000;    0.000;    0.000
 749.01; 4976.500;    0.000;    0.000
 749.33; 4918.500;    0.000;    0.000
 749.65; 5080.500;    0.000;    0.000
 749.97; 4862.000;    0.000;    0.000
 750.29; 4924.500;    0.000;    0.000
 750.61; 4910.000;    0.000;    0.000
 750.94; 5100.000;    0.000;    0.000
 751.26; 4969.000;    0.000;    0.000
 751.58; 5072.500;    0.000;    0.000
 751.90; 5043.000;    0.000;    0.000
 752.22; 5038.500;    0.000;    0.000
 752.54; 5099.000;    0.000;    0.000
 752.87; 5286.000;    0.000;    0.000
 753.19; 4986.500;    0.000;    0.000
 753.51; 5006.000;    0.000;    0.000
 753.83; 4830.000;    0.000;    0.000
 754.15; 4758.000;    0.000;    0.000
 754.47; 4692.000;    0.000;    0.000
 754.79; 4715.500;    0.000;    0.000
 755.12; 4799.000;    0.000;    0.000
 755.44; 4633.500;    0.000;    0.000
 755.76; 4568.000;    0.000;    0.000
 756.08; 4522.500;    0.000;    0.000
 756.40; 4428.000;    0.000;    0.000
 756.72; 4556.000;    0.000;    0.000
 757.04; 4565.000;    0.000;    0.000
 757.37; 4671.500;    0.000;    0.000
 757.69; 4647.000;    0.000;    0.000
 758.01; 4572.500;    0.000;    0.000
 758.33; 4538.000;    0.000;    0.000
 758.65; 4733.000;    0.000;    0.000
 758.97; 4596.500;    0.000;    0.000
 759.29; 4669.000;    0.000;    0.000
 759.62; 4709.000;    0.000;    0.000
 759.94; 4805.500;    0.000;    0.000
 760.26; 4786.500;    0.000;    0.000
 760.58; 4856.500;    0.000;    0.000
 760.90; 4952.500;    0.000;    0.000
 761.22; 4794.000;    0.000;    0.000
 761.54; 4613.500;    0.000;    0.000
 761.86; 4708.000;    0.000;    0.000
 762.18; 4579.500;    0.000;    0.000
 762.51; 4510.000;    0.000;    0.000
 762.83; 4363.000;    0.000;    0.000
 763.15; 4471.000;    0.000;    0.000
 763.47; 4337.000;    0.000;    0.000
 763.79; 4290.500;    0.000;    0.000
 764.11; 4334.000;    0.000;    0.000
 764.43; 4227.000;    0.000;    0.000
 764.75; 4227.500;    0.000;    0.000
 765.07; 4343.000;    0.000;    0.000
 765.40; 4310.000;    0.000;    0.000
 765.72; 4302.500;    0.000;    0.000
 766.04; 4372.500;    0.000;    0.000
 766.36; 4296.500;    0.000;    0.000
 766.68; 4650.500;    0.000;    0.000
 767.00; 4790.500;    0.000;    0.000
 767.32; 4745.000;    0.000;    0.000
 767.64; 4624.000;    0.000;    0.000
 767.96; 4831.500;    0.000;    0.000
 768.28; 4777.000;    0.000;    0.000
 768.61; 4841.500;    0.000;    0.000
 768.93; 4887.000;    0.000;    0.000
 769.25; 4835.000;    0.000;    0.000
 769.57; 4701.000;    0.000;    0.000
 769.89; 4804.500;    0.000;    0.000
 770.21; 4581.000;    0.000;    0.000
 770.53; 4570.500;    0.000;    0.000
 770.85; 4301.000;    0.000;    0.000
 771.17; 4287.500;    0.000;    0.000
 771.49; 4238.500;    0.000;    0.000
 771.81; 4243.500;    0.000;    0.000
 772.13; 3932.500;    0.000;    0.000
 772.45; 3994.500;    0.000;    0.000
 772.78; 3646.500;    0.000;    0.000
 773.10; 3723.000;    0.000;    0.000
 773.42; 3729.000;    0.000;    0.000
 773.74; 3614.500;    0.000;    0.000
 774.06; 3715.500;    0.000;    0.000
 774.38; 3621.000;    0.000;    0.000
 774.70; 3803.000;    0.000;    0.000
 775.02; 3695.500;    0.000;    0.000
 775.34; 3858.500;    0.000;    0.000
 775.66; 4092.000;    0.000;    0.000
 775.98; 4220.000;    0.000;    0.000
 776.30; 4326.500;    0.000;    0.000
 776.62; 4216.000;    0.000;    0.000
 776.94; 4466.000;    0.000;    0.000
 777.26; 4551.500;    0.000;    0.000
 777.58; 4558.000;    0.000;    0.000
 777.90; 4451.000;    0.000;    0.000
 778.22; 4360.000;    0.000;    0.000
 778.54; 4353.500;    0.000;    0.000
 778.87; 4083.000;    0.000;    0.000
 779.19; 3746.500;    0.000;    0.000
 779.51; 3840.500;    0.000;    0.000
 779.83; 3544.500;    0.000;    0.000
 780.15; 3523.000;    0.000;    0.000
 780.47; 3225.000;    0.000;    0.000
 780.79; 3122.500;    0.000;    0.000
 781.11; 2995.000;    0.000;    0.000
 781.43; 2943.500;    0.000;    0.000
 781.75; 2639.000;    0.000;    0.000
 782.07; 2576.500;    0.000;    0.000
 782.39; 2595.000;    0.000;    0.000
 782.71; 2746.500;    0.000;    0.000
 783.03; 2587.000;    0.000;    0.000
 783.35; 2610.500;    0.000;    0.000
 783.67; 2627.500;    0.000;    0.000
 783.99; 2722.500;    0.000;    0.000
 784.31; 2742.500;    0.000;    0.000
 784.63; 3030.500;    0.000;    0.000
 784.95; 3162.500;    0.000;    0.000
 785.27; 3379.000;    0.000;    0.000
 785.59; 3354.000;    0.000;    0.000
 785.91; 3584.500;    0.000;    0.000
 786.23; 3491.000;    0.000;    0.000
 786.55; 3465.500;    0.000;    0.000
 786.87; 3418.000;    0.000;    0.000
 787.19; 3447.000;    0.000;    0.000
 787.51; 3392.000;    0.000;    0.000
 787.83; 3350.500;    0.000;    0.000
 788.15; 3183.500;    0.000;    0.000
 788.47; 3051.000;    0.000;    0.000
 788.79; 3130.000;    0.000;    0.000
 789.11; 2872.000;    0.000;    0.000
 789.43; 2788.000;    0.000;    0.000
 789.75; 2796.000;    0.000;    0.000
 790.07; 2701.000;    0.000;    0.000
 790.39; 2450.000;    0.000;    0.000
 790.71; 2462.500;    0.000;    0.000
 791.03; 2479.000;    0.000;    0.000
 791.35; 2375.500;    0.000;    0.000
 791.67; 2287.500;    0.000;    0.000
 791.99; 2397.500;    0.000;    0.000
 792.31; 2343.000;    0.000;    0.000
 792.63; 2289.000;    0.000;    0.000
 792.95; 2438.500;    0.000;    0.000
 793.27; 2535.500;    0.000;    0.000
 793.59; 2533.000;    0.000;    0.000
 793.91; 2499.000;    0.000;    0.000
 794.23; 2720.500;    0.000;    0.000
 794.55; 2724.000;    0.000;    0.000
 794.87; 2870.000;    0.000;    0.000
 795.19; 2843.000;    0.000;    0.000
 795.51; 3062.500;    0.000;    0.000
 795.83; 2949.000;    0.000;    0.000
 796.15; 3019.000;    0.000;    0.000
 796.47; 3061.500;    0.000;    0.000
 796.79; 2995.500;    0.000;    0.000
 797.11; 3123.500;    0.000;    0.000
 797.42; 3048.500;    0.000;    0.000
 797.74; 2808.000;    0.000;    0.000
 798.06; 2867.500;    0.000;    0.000
 798.38; 2749.000;    0.000;    0.000
 798.70; 2727.500;    0.000;    0.000
 799.02; 2551.000;    0.000;    0.000
 799.34; 2445.000;    0.000;    0.000
 799.66; 2427.000;    0.000;    0.000
 799.98; 2453.500;    0.000;    0.000
 800.30; 2301.000;    0.000;    0.000
 800.62; 2152.500;    0.000;    0.000
 800.94; 2212.000;    0.000;    0.000
 801.26; 2157.500;    0.000;    0.000
 801.58; 2218.500;    0.000;    0.000
 801.90; 2235.500;    0.000;    0.000
 802.22; 2090.000;    0.000;    0.000
 802.54; 2129.000;    0.000;    0.000
 802.86; 2155.500;    0.000;    0.000
 803.17; 2339.500;    0.000;    0.000
 803.49; 2304.500;    0.000;    0.000
 803.81; 2329.000;    0.000;    0.000
 804.13; 2326.000;    0.000;    0.000
 804.45; 2489.500;    0.000;    0.000
 804.77; 2621.000;    0.000;    0.000
 805.09; 2680.500;    0.000;    0.000
 805.41; 2632.000;    0.000;    0.000
 805.73; 2800.000;    0.000;    0.000
 806.05; 2780.000;    0.000;    0.000
 806.37; 2799.500;    0.000;    0.000
 806.69; 2700.000;    0.000;    0.000
 807.01; 2806.000;    0.000;    0.000
 807.32; 2790.500;    0.000;    0.000
 807.64; 2747.000;    0.000;    0.000
 807.96; 2790.000;    0.000;    0.000
 808.28; 2724.000;    0.000;    0.000
 808.60; 2721.500;    0.000;    0.000
 808.92; 2627.000;    0.000;    0.000
 809.24; 2616.000;    0.000;    0.000
 809.56; 2501.000;    0.000;    0.000
 809.88; 2369.500;    0.000;    0.000
 810.20; 2416.000;    0.000;    0.000
 810.52; 2316.000;    0.000;    0.000
 810.83; 2175.000;    0.000;    0.000
 811.15; 2199.000;    0.000;    0.000
 811.47; 2179.500;    0.000;    0.000
 811.79; 2077.500;    0.000;    0.000
 812.11; 1984.000;    0.000;    0.000
 812.43; 2031.000;    0.000;    0.000
 812.75; 2105.500;    0.000;    0.000
 813.07; 2087.000;    0.000;    0.000
 813.39; 2116.000;    0.000;    0.000
 813.70; 2149.500;    0.000;    0.000
 814.02; 2127.500;    0.000;    0.000
 814.34; 2140.500;    0.000;    0.000
 814.66; 2294.500;    0.000;    0.000
 814.98; 2264.500;    0.000;    0.000
 815.30; 2299.000;    0.000;    0.000
 815.62; 2315.000;    0.000;    0.000
 815.94; 2393.500;    0.000;    0.000
 816.25; 2399.500;    0.000;    0.000
 816.57; 2532.000;    0.000;    0.000
 816.89; 2556.000;    0.000;    0.000
 817.21; 2541.500;    0.000;    0.000
 817.53; 2604.500;    0.000;    0.000
 817.85; 2493.000;    0.000;    0.000
 818.17; 2618.500;    0.000;    0.000
 818.49; 2696.000;    0.000;    0.000
 818.80; 2637.000;    0.000;    0.000
 819.12; 2710.500;    0.000;    0.000
 819.44; 2714.000;    0.000;    0.000
 819.76; 2642.500;    0.000;    0.000
 820.08; 2560.500;    0.000;    0.000
 820.40; 2603.500;    0.000;    0.000
 820.72; 2651.500;    0.000;    0.000
 821.03; 2531.000;    0.000;    0.000
 821.35; 2539.000;    0.000;    0.000
 821.67; 2535.500;    0.000;    0.000
 821.99; 2366.500;    0.000;    0.000
 822.31; 2379.000;    0.000;    0.000
 822.63; 2281.000;    0.000;    0.000
 822.94; 2259.500;    0.000;    0.000
 823.26; 2147.000;    0.000;    0.000
 823.58; 2118.500;    0.000;    0.000
 823.90; 2056.000;    0.000;    0.000
 824.22; 2162.500;    0.000;    0.000
 824.54; 2141.000;    0.000;    0.000
 824.85; 1990.500;    0.000;    0.000
 825.17; 2054.500;    0.000;    0.000
 825.49; 1898.000;    0.000;    0.000
 825.81; 1896.500;    0.000;    0.000
 826.13; 1844.500;    0.000;    0.000
 826.45; 1892.500;    0.000;    0.000
 826.76; 1853.000;    0.000;    0.000
 827.08; 1863.500;    0.000;    0.000
 827.40; 1779.000;    0.000;    0.000
 827.72; 1804.500;    0.000;    0.000
 828.04; 1673.000;    0.000;    0.000
 828.36; 1663.000;    0.000;    0.000
 828.67; 1634.500;    0.000;    0.000
 828.99; 1644.000;    0.000;    0.000
 829.31; 1532.500;    0.000;    0.000
 829.63; 1616.000;    0.000;    0.000
 829.95; 1711.500;    0.000;    0.000
 830.26; 1601.500;    0.000;    0.000
 830.58; 1636.000;    0.000;    0.000
 830.90; 1547.000;    0.000;    0.000
 831.22; 1562.000;    0.000;    0.000
 831.54; 1561.000;    0.000;    0.000
 831.85; 1617.000;    0.000;    0.000
 832.17; 1601.500;    0.000;    0.000
 832.49; 1538.500;    0.000;    0.000
 832.81; 1537.500;    0.000;    0.000
 833.13; 1516.500;    0.000;    0.000
 833.44; 1414.000;    0.000;    0.000
 833.76; 1372.000;    0.000;    0.000
 834.08; 1382.500;    0.000;    0.000
 834.40; 1374.000;    0.000;    0.000
 834.72; 1348.000;    0.000;    0.000
 835.03; 1283.000;    0.000;    0.000
 835.35; 1246.500;    0.000;    0.000
 835.67; 1232.500;    0.000;    0.000
 835.99; 1130.500;    0.000;    0.000
 836.30; 1173.000;    0.000;    0.000
 836.62; 1188.000;    0.000;    0.000
 836.94; 1120.000;    0.000;    0.000
 837.26; 1096.500;    0.000;    0.000
 837.58; 1128.500;    0.000;    0.000
 837.89; 1114.000;    0.000;    0.000
 838.21; 1185.000;    0.000;    0.000
 838.53; 1116.500;    0.000;    0.000
 838.85; 1162.500;    0.000;    0.000
 839.16; 1156.000;    0.000;    0.000
 839.48; 1238.000;    0.000;    0.000
 839.80; 1173.000;    0.000;    0.000
 840.12; 1271.500;    0.000;    0.000
 840.43; 1288.000;    0.000;    0.000
 840.75; 1191.000;    0.000;    0.000
 841.07; 1217.500;    0.000;    0.000
 841.39; 1181.500;    0.000;    0.000
 841.70; 1178.500;    0.000;    0.000
 842.02; 1207.000;    0.000;    0.000
 842.34; 1266.000;    0.000;    0.000
 842.66; 1261.000;    0.000;    0.000
 842.97; 1302.000;    0.000;    0.000
 843.29; 1312.000;    0.000;    0.000
 843.61; 1342.000;    0.000;    0.000
 843.93; 1474.000;    0.000;    0.000
 844.24; 1480.000;    0.000;    0.000
 844.56; 1402.000;    0.000;    0.000
 844.88; 1492.500;    0.000;    0.000
 845.20; 1421.000;    0.000;    0.000
 845.51; 1501.500;    0.000;    0.000
 845.83; 1512.000;    0.000;    0.000
 846.15; 1476.500;    0.000;    0.000
 846.47; 1542.000;    0.000;    0.000
 846.78; 1622.000;    0.000;    0.000
 847.10; 1619.000;    0.000;    0.000
 847.42; 1740.500;    0.000;    0.000
 847.74; 1732.500;    0.000;    0.000
 848.05; 1935.500;    0.000;    0.000
 848.37; 2056.000;    0.000;    0.000
 848.69; 2105.000;    0.000;    0.000
 849.00; 2250.000;    0.000;    0.000
 849.32; 2311.000;    0.000;    0.000
 849.64; 2394.000;    0.000;    0.000
 849.96; 2382.500;    0.000;    0.000
 850.27; 2482.500;    0.000;    0.000
 850.59; 2517.500;    0.000;    0.000
 850.91; 2628.500;    0.000;    0.000
 851.22; 2654.500;    0.000;    0.000
 851.54; 2561.500;    0.000;    0.000
 851.86; 2610.000;    0.000;    0.000
 852.18; 2670.500;    0.000;    0.000
 852.49; 2586.000;    0.000;    0.000
 852.81; 2535.000;    0.000;    0.000
 853.13; 2374.000;    0.000;    0.000
 853.44; 2475.000;    0.000;    0.000
 853.76; 2410.500;    0.000;    0.000
 854.08; 2491.000;    0.000;    0.000
 854.39; 2534.000;    0.000;    0.000
 854.71; 2550.000;    0.000;    0.000
 855.03; 2383.000;    0.000;    0.000
 855.34; 2411.000;    0.000;    0.000
 855.66; 2456.000;    0.000;    0.000
 855.98; 2321.000;    0.000;    0.000
 856.30; 2445.500;    0.000;    0.000
 856.61; 2577.500;    0.000;    0.000
 856.93; 2421.000;    0.000;    0.000
 857.25; 2531.000;    0.000;    0.000
 857.56; 2577.000;    0.000;    0.000
 857.88; 2532.500;    0.000;    0.000
 858.20; 2537.500;    0.000;    0.000
 858.51; 2690.500;    0.000;    0.000
 858.83; 2663.000;    0.000;    0.000
 859.15; 2648.500;    0.000;    0.000
 859.46; 2589.000;    0.000;    0.000
 859.78; 2638.500;    0.000;    0.000
 860.10; 2594.000;    0.000;    0.000
 860.41; 2609.500;    0.000;    0.000
 860.73; 2657.000;    0.000;    0.000
 861.05; 2625.500;    0.000;    0.000
 861.36; 2729.500;    0.000;    0.000
 861.68; 2643.000;    0.000;    0.000
 862.00; 2581.500;    0.000;    0.000
 862.31; 2589.500;    0.000;    0.000
 862.63; 2704.500;    0.000;    0.000
 862.95; 2748.500;    0.000;    0.000
 863.26; 2682.000;    0.000;    0.000
 863.58; 2661.000;    0.000;    0.000
 863.90; 2645.500;    0.000;    0.000
 864.21; 2789.000;    0.000;    0.000
 864.53; 2747.000;    0.000;    0.000
 864.84; 2705.000;    0.000;    0.000
 865.16; 2630.000;    0.000;    0.000
 865.48; 2595.000;    0.000;    0.000
 865.79; 2504.000;    0.000;    0.000
 866.11; 2573.500;    0.000;    0.000
 866.43; 2626.000;    0.000;    0.000
 866.74; 2548.000;    0.000;    0.000
 867.06; 2641.000;    0.000;    0.000
 867.38; 2610.000;    0.000;    0.000
 867.69; 2633.000;    0.000;    0.000
 868.01; 2619.000;    0.000;    0.000
 868.32; 2475.500;    0.000;    0.000
 868.64; 2728.500;    0.000;    0.000
 868.96; 2533.500;    0.000;    0.000
 869.27; 2686.500;    0.000;    0.000
 869.59; 2643.000;    0.000;    0.000
 869.91; 2599.500;    0.000;    0.000
 870.22; 2484.000;    0.000;    0.000
 870.54; 2462.000;    0.000;    0.000
 870.85; 2456.500;    0.000;    0.000
 871.17; 2545.500;    0.000;    0.000
 871.49; 2578.500;    0.000;    0.000
 871.80; 2490.000;    0.000;    0.000
 872.12; 2538.500;    0.000;    0.000
 872.43; 2520.500;    0.000;    0.000
 872.75; 2481.500;    0.000;    0.000
 873.07; 2510.000;    0.000;    0.000
 873.38; 2367.500;    0.000;    0.000
 873.70; 2553.500;    0.000;    0.000
 874.02; 2390.000;    0.000;    0.000
 874.33; 2390.500;    0.000;    0.000
 874.65; 2246.500;    0.000;    0.000
 874.96; 2354.500;    0.000;    0.000
 875.28; 2267.000;    0.000;    0.000
 875.59; 2359.000;    0.000;    0.000
 875.91; 2375.000;    0.000;    0.000
 876.23; 2295.500;    0.000;    0.000
 876.54; 2228.000;    0.000;    0.000
 876.86; 2242.500;    0.000;    0.000
 877.17; 2246.000;    0.000;    0.000
 877.49; 2277.500;    0.000;    0.000
 877.81; 2198.500;    0.000;    0.000
 878.12; 2137.000;    0.000;    0.000
 878.44; 2028.000;    0.000;    0.000
 878.75; 1978.000;    0.000;    0.000
 879.07; 2078.500;    0.000;    0.000
 879.38; 2118.500;    0.000;    0.000
 879.70; 2071.000;    0.000;    0.000
 880.02; 1980.000;    0.000;    0.000
 880.33; 2022.500;    0.000;    0.000
 880.65; 2106.500;    0.000;    0.000
 880.96; 2014.500;    0.000;    0.000
 881.28; 2053.500;    0.000;    0.000
 881.59; 2020.500;    0.000;    0.000
 881.91; 2030.000;    0.000;    0.000
 882.23; 1934.000;    0.000;    0.000
 882.54; 1975.000;    0.000;    0.000
 882.86; 1848.000;    0.000;    0.000
 883.17; 1960.000;    0.000;    0.000
 883.49; 1948.500;    0.000;    0.000
 883.80; 1951.000;    0.000;    0.000
 884.12; 1898.000;    0.000;    0.000
 884.43; 1889.000;    0.000;    0.000
 884.75; 1835.500;    0.000;    0.000
 885.07; 1774.500;    0.000;    0.000
 885.38; 1742.000;    0.000;    0.000
 885.70; 1772.000;    0.000;    0.000
 886.01; 1800.000;    0.000;    0.000
 886.33; 1717.000;    0.000;    0.000
 886.64; 1747.500;    0.000;    0.000
 886.96; 1702.000;    0.000;    0.000
 887.27; 1701.500;    0.000;    0.000
 887.59; 1761.000;    0.000;    0.000
 887.90; 1738.000;    0.000;    0.000
 888.22; 1699.500;    0.000;    0.000
 888.54; 1729.500;    0.000;    0.000
 888.85; 1673.000;    0.000;    0.000
 889.17; 1603.000;    0.000;    0.000
 889.48; 1594.000;    0.000;    0.000
 889.80; 1658.500;    0.000;    0.000
 890.11; 1614.500;    0.000;    0.000
 890.43; 1540.000;    0.000;    0.000
 890.74; 1527.500;    0.000;    0.000
 891.06; 1518.500;    0.000;    0.000
 891.37; 1599.000;    0.000;    0.000
 891.69; 1523.000;    0.000;    0.000
 892.00; 1575.000;    0.000;    0.000
 892.32; 1561.500;    0.000;    0.000
 892.63; 1583.000;    0.000;    0.000
 892.95; 1526.000;    0.000;    0.000
 893.26; 1548.500;    0.000;    0.000
 893.58; 1535.000;    0.000;    0.000
 893.89; 1497.500;    0.000;    0.000
 894.21; 1299.000;    0.000;    0.000
 894.52; 1301.000;    0.000;    0.000
 894.84; 1322.500;    0.000;    0.000
 895.15; 1424.500;    0.000;    0.000
 895.47; 1412.000;    0.000;    0.000
 895.78; 1416.500;    0.000;    0.000
 896.10; 1401.000;    0.000;    0.000
 896.41; 1298.000;    0.000;    0.000
 896.73; 1301.000;    0.000;    0.000
 897.04; 1285.000;    0.000;    0.000
 897.36; 1274.500;    0.000;    0.000
 897.67; 1239.500;    0.000;    0.000
 897.99; 1277.500;    0.000;    0.000
 898.30; 1187.500;    0.000;    0.000
 898.62; 1223.000;    0.000;    0.000
 898.93; 1208.000;    0.000;    0.000
 899.25; 1184.000;    0.000;    0.000
 899.56; 1261.500;    0.000;    0.000
 899.88; 1187.500;    0.000;    0.000
 900.19; 1191.500;    0.000;    0.000
 900.51; 1216.500;    0.000;    0.000
 900.82; 1144.000;    0.000;    0.000
 901.13; 1101.000;    0.000;    0.000
 901.45; 1141.500;    0.000;    0.000
 901.76; 1066.500;    0.000;    0.000
 902.08; 1097.000;    0.000;    0.000
 902.39; 1040.500;    0.000;    0.000
 902.71; 1008.500;    0.000;    0.000
 903.02;  986.000;    0.000;    0.000
 903.34;  996.500;    0.000;    0.000
 903.65; 1057.000;    0.000;    0.000
 903.97; 1036.500;    0.000;    0.000
 904.28;  982.000;    0.000;    0.000
 904.60;  991.000;    0.000;    0.000
 904.91;  958.000;    0.000;    0.000
 905.22; 1019.500;    0.000;    0.000
 905.54;  928.000;    0.000;    0.000
 905.85;  914.000;    0.000;    0.000
 906.17;  936.000;    0.000;    0.000
 906.48;  843.000;    0.000;    0.000
 906.80;  825.000;    0.000;    0.000
 907.11;  811.000;    0.000;    0.000
 907.43;  814.500;    0.000;    0.000
 907.74;  840.000;    0.000;    0.000
 908.05;  847.000;    0.000;    0.000
 908.37;  819.500;    0.000;    0.000
 908.68;  879.000;    0.000;    0.000
 909.00;  823.500;    0.000;    0.000
 909.31;  862.500;    0.000;    0.000
 909.63;  804.500;    0.000;    0.000
 909.94;  765.500;    0.000;    0.000
 910.25;  728.500;    0.000;    0.000
 910.57;  702.000;    0.000;    0.000
 910.88;  684.000;    0.000;    0.000
 911.20;  743.000;    0.000;    0.000
 911.51;  746.500;    0.000;    0.000
 911.83;  705.000;    0.000;    0.000
 912.14;  680.000;    0.000;    0.000
 912.45;  669.500;    0.000;    0.000
 912.77;  680.500;    0.000;    0.000
 913.08;  705.000;    0.000;    0.000
 913.40;  615.500;    0.000;    0.000
 913.71;  660.500;    0.000;    0.000
 914.02;  625.500;    0.000;    0.000
 914.34;  640.000;    0.000;    0.000
 914.65;  590.500;    0.000;    0.000
 914.97;  551.500;    0.000;    0.000
 915.28;  595.500;    0.000;    0.000
 915.59;  521.500;    0.000;    0.000
 915.91;  537.000;    0.000;    0.000
 916.22;  572.500;    0.000;    0.000
 916.54;  501.000;    0.000;    0.000
 916.85;  555.500;    0.000;    0.000
 917.16;  558.500;    0.000;    0.000
 917.48;  523.000;    0.000;    0.000
 917.79;  564.000;    0.000;    0.000
 918.11;  444.000;    0.000;    0.000
 918.42;  508.000;    0.000;    0.000
 918.73;  493.500;    0.000;    0.000
 919.05;  494.500;    0.000;    0.000
 919.36;  498.500;    0.000;    0.000
 919.67;  467.000;    0.000;    0.000
 919.99;  504.500;    0.000;    0.000
 920.30;  452.500;    0.000;    0.000
 920.62;  465.500;    0.000;    0.000
 920.93;  422.000;    0.000;    0.000
 921.24;  374.000;    0.000;    0.000
 921.56;  410.500;    0.000;    0.000
 921.87;  419.500;    0.000;    0.000
 922.18;  451.000;    0.000;    0.000
 922.50;  378.500;    0.000;    0.000
 922.81;  420.000;    0.000;    0.000
 923.12;  404.500;    0.000;    0.000
 923.44;  409.000;    0.000;    0.000
 923.75;  405.000;    0.000;    0.000
 924.07;  352.500;    0.000;    0.000
 924.38;  370.500;    0.000;    0.000
 924.69;  359.000;    0.000;    0.000
 925.01;  356.000;    0.000;    0.000
 925.32;  343.500;    0.000;    0.000
 925.63;  345.000;    0.000;    0.000
 925.95;  349.000;    0.000;    0.000
 926.26;  356.000;    0.000;    0.000
 926.57;  323.000;    0.000;    0.000
 926.89;  285.500;    0.000;    0.000
 927.20;  328.500;    0.000;    0.000
 927.51;  311.000;    0.000;    0.000
 927.83;  338.000;    0.000;    0.000
 928.14;  252.000;    0.000;    0.000
 928.45;  299.500;    0.000;    0.000
 928.77;  272.000;    0.000;    0.000
 929.08;  217.500;    0.000;    0.000
 929.39;  297.500;    0.000;    0.000
 929.71;  273.000;    0.000;    0.000
 930.02;  283.000;    0.000;    0.000
 930.33;  299.000;    0.000;    0.000
 930.65;  238.500;    0.000;    0.000
 930.96;  246.500;    0.000;    0.000
 931.27;  239.000;    0.000;    0.000
 931.59;  204.500;    0.000;    0.000
 931.90;  183.000;    0.000;    0.000
 932.21;  221.500;    0.000;    0.000
 932.53;  210.500;    0.000;    0.000
 932.84;  211.500;    0.000;    0.000
 933.15;  206.000;    0.000;    0.000
 933.46;  148.500;    0.000;    0.000
 933.78;  188.000;    0.000;    0.000
 934.09;  194.000;    0.000;    0.000
 934.40;  120.500;    0.000;    0.000
 934.72;  176.000;    0.000;    0.000
 935.03;  193.000;    0.000;    0.000
 935.34;  115.000;    0.000;    0.000
 935.66;  163.500;    0.000;    0.000
 935.97;  161.000;    0.000;    0.000
 936.28;  129.500;    0.000;    0.000
 936.59;  129.500;    0.000;    0.000
 936.91;  121.000;    0.000;    0.000
 937.22;  119.000;    0.000;    0.000
 937.53;   92.000;    0.000;    0.000
 937.85;  112.000;    0.000;    0.000
 938.16;  128.500;    0.000;    0.000
 938.47;  132.500;    0.000;    0.000
 938.78;   83.000;    0.000;    0.000
 939.10;  109.000;    0.000;    0.000
 939.41;   81.500;    0.000;    0.000
 939.72;   76.000;    0.000;    0.000
 940.04;  141.000;    0.000;    0.000
 940.35;   32.500;    0.000;    0.000
 940.66;   66.000;    0.000;    0.000
 940.97;   84.500;    0.000;    0.000
 941.29;   27.500;    0.000;    0.000
 941.60;   74.500;    0.000;    0.000
 941.91;   41.500;    0.000;    0.000
 942.22;   64.000;    0.000;    0.000
 942.54;   60.000;    0.000;    0.000
 942.85;   50.500;    0.000;    0.000
 943.16;   43.000;    0.000;    0.000
 943.48;   80.500;    0.000;    0.000
 943.79;   89.500;    0.000;    0.000
 944.10;   38.000;    0.000;    0.000
 944.41;   82.000;    0.000;    0.000
 944.73;   94.500;    0.000;    0.000
 945.04;   71.000;    0.000;    0.000
 945.35;   48.000;    0.000;    0.000
 945.66;   45.500;    0.000;    0.000
 945.98;   60.000;    0.000;    0.000
 946.29;   52.500;    0.000;    0.000
 946.60;   54.500;    0.000;    0.000
 946.91;   23.500;    0.000;    0.000
 947.22;   53.500;    0.000;    0.000
 947.54;   14.500;    0.000;    0.000
 947.85;   57.000;    0.000;    0.000
 948.16;   58.500;    0.000;    0.000
 948.47;   28.000;    0.000;    0.000
 948.79;   72.500;    0.000;    0.000
 949.10;   60.000;    0.000;    0.000
 949.41;   37.000;    0.000;    0.000
 949.72;   73.500;    0.000;    0.000
 950.04;   67.500;    0.000;    0.000
 950.35;   86.000;    0.000;    0.000
 950.66;   98.500;    0.000;    0.000
 950.97;   48.500;    0.000;    0.000
 951.28;   61.000;    0.000;    0.000
 951.60;   47.500;    0.000;    0.000
 951.91;   73.500;    0.000;    0.000
 952.22;   26.500;    0.000;    0.000
 952.53;   60.500;    0.000;    0.000
 952.85;   50.500;    0.000;    0.000
 953.16;   56.000;    0.000;    0.000
 953.47;   49.500;    0.000;    0.000
 953.78;   66.000;    0.000;    0.000
 954.09;   77.500;    0.000;    0.000
 954.41;   67.500;    0.000;    0.000
 954.72;   84.000;    0.000;    0.000
 955.03;   38.500;    0.000;    0.000
 955.34;   95.000;    0.000;    0.000
 955.65;   63.000;    0.000;    0.000
 955.97;   30.000;    0.000;    0.000
 956.28;   32.500;    0.000;    0.000
 956.59;   21.500;    0.000;    0.000
 956.90;   81.000;    0.000;    0.000
 957.21;   85.500;    0.000;    0.000
 957.52;   64.500;    0.000;    0.000
 957.84;  107.500;    0.000;    0.000
 958.15;   25.500;    0.000;    0.000
 958.46;   81.500;    0.000;    0.000
 958.77;   38.500;    0.000;    0.000
 959.08;   -9.000;    0.000;    0.000
 959.40;   58.500;    0.000;    0.000
 959.71;  103.500;    0.000;    0.000
 960.02;   49.000;    0.000;    0.000
 960.33;   69.500;    0.000;    0.000
 960.64;   54.000;    0.000;    0.000
 960.95;   46.000;    0.000;    0.000
 961.27;   37.500;    0.000;    0.000
 961.58;   59.500;    0.000;    0.000
 961.89;   60.500;    0.000;    0.000
 962.20;   30.000;    0.000;    0.000
 962.51;   27.500;    0.000;    0.000
 962.82;   54.000;    0.000;    0.000
 963.14;   84.000;    0.000;    0.000
 963.45;   20.000;    0.000;    0.000
 963.76;   59.500;    0.000;    0.000
 964.07;   75.500;    0.000;    0.000
 964.38;   38.500;    0.000;    0.000
 964.69;   56.000;    0.000;    0.000
 965.00;   33.500;    0.000;    0.000
 965.32;    7.500;    0.000;    0.000
 965.63;   16.500;    0.000;    0.000
 965.94;   83.000;    0.000;    0.000
 966.25;   36.500;    0.000;    0.000
 966.56;   21.500;    0.000;    0.000
 966.87;   30.500;    0.000;    0.000
 967.18;   33.500;    0.000;    0.000
 967.50;   -2.000;    0.000;    0.000
 967.81;   42.500;    0.000;    0.000
 968.12;   69.500;    0.000;    0.000
 968.43;   46.000;    0.000;    0.000
 968.74;   -2.000;    0.000;    0.000
 969.05;   97.000;    0.000;    0.000
 969.36;   39.500;    0.000;    0.000
 969.68;   31.000;    0.000;    0.000
 969.99;   77.500;    0.000;    0.000
 970.30;   14.000;    0.000;    0.000
 970.61;   17.000;    0.000;    0.000
 970.92;   47.000;    0.000;    0.000
 971.23;   66.000;    0.000;    0.000
 971.54;   34.000;    0.000;    0.000
 971.85;   45.500;    0.000;    0.000
 972.16;   47.500;    0.000;    0.000
 972.48;    5.000;    0.000;    0.000
 972.79;   27.000;    0.000;    0.000
 973.10;   44.500;    0.000;    0.000
 973.41;    9.500;    0.000;    0.000
 973.72;   89.000;    0.000;    0.000
 974.03;   35.500;    0.000;    0.000
 974.34;   54.000;    0.000;    0.000
 974.65;   40.500;    0.000;    0.000
 974.96;  -10.500;    0.000;    0.000
 975.27;   -4.500;    0.000;    0.000
 975.59;   40.000;    0.000;    0.000
 975.90;   36.000;    0.000;    0.000
 976.21;   24.000;    0.000;    0.000
 976.52;   32.500;    0.000;    0.000
 976.83;   23.000;    0.000;    0.000
 977.14;   63.000;    0.000;    0.000
 977.45;   27.500;    0.000;    0.000
 977.76;   22.000;    0.000;    0.000
 978.07;   23.500;    0.000;    0.000
 978.38;   12.500;    0.000;    0.000
 978.69;   56.000;    0.000;    0.000
 979.00;   10.000;    0.000;    0.000
 979.32;   33.500;    0.000;    0.000
 979.63;   11.000;    0.000;    0.000
 979.94;   12.500;    0.000;    0.000
 980.25;   26.000;    0.000;    0.000
 980.56;   27.500;    0.000;    0.000
 980.87;    3.500;    0.000;    0.000
 981.18;    8.000;    0.000;    0.000
 981.49;   47.000;    0.000;    0.000
 981.80;  -20.500;    0.000;    0.000
 982.11;   44.000;    0.000;    0.000
 982.42;   15.000;    0.000;    0.000
 982.73;   18.000;    0.000;    0.000
 983.04;   33.000;    0.000;    0.000
 983.35;   39.000;    0.000;    0.000
 983.66;   46.500;    0.000;    0.000
 983.97;    2.500;    0.000;    0.000
 984.29;   28.500;    0.000;    0.000
 984.60;   55.500;    0.000;    0.000
 984.91;   15.000;    0.000;    0.000
 985.22;    1.500;    0.000;    0.000
 985.53;    8.500;    0.000;    0.000
 985.84;   17.000;    0.000;    0.000
 986.15;   -7.500;    0.000;    0.000
 986.46;   33.500;    0.000;    0.000
 986.77;   52.000;    0.000;    0.000
 987.08;   10.000;    0.000;    0.000
 987.39;   33.000;    0.000;    0.000
 987.70;   55.500;    0.000;    0.000
 988.01;   42.500;    0.000;    0.000
 988.32;   18.000;    0.000;    0.000
 988.63;  -22.500;    0.000;    0.000
 988.94;  -32.500;    0.000;    0.000
 989.25;   -2.500;    0.000;    0.000
 989.56;  -15.000;    0.000;    0.000
 989.87;   51.500;    0.000;    0.000
 990.18;  -16.500;    0.000;    0.000
 990.49;   -3.000;    0.000;    0.000
 990.80;    6.000;    0.000;    0.000
 991.11;   29.000;    0.000;    0.000
 991.42;   25.500;    0.000;    0.000
 991.73;  -23.000;    0.000;    0.000
 992.04;  -20.500;    0.000;    0.000
 992.35;  -13.500;    0.000;    0.000
 992.66;   59.500;    0.000;    0.000
 992.97;    2.500;    0.000;    0.000
 993.28;   57.500;    0.000;    0.000
 993.59;  -58.500;    0.000;    0.000
 993.90;    0.000;    0.000;    0.000
 994.21;  -17.000;    0.000;    0.000
 994.52;   21.000;    0.000;    0.000
 994.83;   24.000;    0.000;    0.000
 995.14;    4.500;    0.000;    0.000
 995.45;  -14.500;    0.000;    0.000
 995.76;    3.500;    0.000;    0.000
 996.07;  -16.000;    0.000;    0.000
 996.38;   21.000;    0.000;    0.000
 996.69;   27.500;    0.000;    0.000
 997.00;    2.500;    0.000;    0.000
 997.31;   55.500;    0.000;    0.000
 997.62;  -12.000;    0.000;    0.000
 997.93;   20.000;    0.000;    0.000
 998.24;  -18.000;    0.000;    0.000
 998.55;    6.500;    0.000;    0.000
 998.86;   18.000;    0.000;    0.000
 999.17;  -17.500;    0.000;    0.000
 999.48;    3.000;    0.000;    0.000
 999.79;  -19.500;    0.000;    0.000
1000.10;   37.500;    0.000;    0.000
1000.41;  -34.500;    0.000;    0.000
1000.72;  -23.000;    0.000;    0.000
1001.03;  -28.000;    0.000;    0.000
1001.34;   -7.000;    0.000;    0.000
1001.65;   -1.500;    0.000;    0.000
1001.96;  -22.000;    0.000;    0.000
1002.27;  -24.000;    0.000;    0.000
1002.57;   45.000;    0.000;    0.000
1002.88;  -24.000;    0.000;    0.000
1003.19;   -1.000;    0.000;    0.000
1003.50;   11.500;    0.000;    0.000
1003.81;  -13.000;    0.000;    0.000
1004.12;  -35.000;    0.000;    0.000
1004.43;   25.000;    0.000;    0.000
1004.74;  -24.000;    0.000;    0.000
1005.05;   -9.000;    0.000;    0.000
1005.36;   27.000;    0.000;    0.000
1005.67;  -40.500;    0.000;    0.000
1005.98;  -16.000;    0.000;    0.000
1006.29;   23.000;    0.000;    0.000
1006.60;   56.000;    0.000;    0.000
1006.91;   13.500;    0.000;    0.000
1007.22;    1.000;    0.000;    0.000
1007.53;  -22.000;    0.000;    0.000
1007.83;  -18.000;    0.000;    0.000
1008.14;    4.000;    0.000;    0.000
1008.45;   25.000;    0.000;    0.000
1008.76;   30.500;    0.000;    0.000
1009.07;  -21.500;    0.000;    0.000
1009.38;  -24.000;    0.000;    0.000
1009.69;   12.500;    0.000;    0.000
1010.00;   -1.500;    0.000;    0.000
1010.31;   27.000;    0.000;    0.000
1010.62;  -52.500;    0.000;    0.000
1010.93;   22.500;    0.000;    0.000
1011.23;   14.000;    0.000;    0.000
1011.54;   -2.500;    0.000;    0.000
1011.85;   29.500;    0.000;    0.000
1012.16;  -38.500;    0.000;    0.000
1012.47;  -20.000;    0.000;    0.000
1012.78;  -16.500;    0.000;    0.000
1013.09;   26.500;    0.000;    0.000
1013.40;    3.000;    0.000;    0.000
1013.71;   12.000;    0.000;    0.000
1014.02;   13.500;    0.000;    0.000
1014.32;   14.500;    0.000;    0.000
1014.63;    5.000;    0.000;    0.000
1014.94;    6.500;    0.000;    0.000
1015.25;  -33.500;    0.000;    0.000
1015.56;   10.000;    0.000;    0.000
1015.87;  -21.000;    0.000;    0.000
1016.18;   19.500;    0.000;    0.000
1016.49;   -0.500;    0.000;    0.000
1016.80;  -35.500;    0.000;    0.000
1017.10;  -14.500;    0.000;    0.000
1017.41;  -12.500;    0.000;    0.000
1017.72;   49.500;    0.000;    0.000
1018.03;  -17.500;    0.000;    0.000
1018.34;   25.500;    0.000;    0.000
1018.65;  -10.500;    0.000;    0.000
1018.96;   -4.000;    0.000;    0.000
1019.26;   -4.000;    0.000;    0.000
1019.57;  -10.500;    0.000;    0.000
1019.88;   -6.500;    0.000;    0.000
1020.19;   -6.500;    0.000;    0.000
1020.50;  -14.000;    0.000;    0.000
1020.81;  -21.500;    0.000;    0.000
1021.12;  -37.000;    0.000;    0.000
1021.42;  -21.500;    0.000;    0.000
1021.73;   11.500;    0.000;    0.000
1022.04;   25.500;    0.000;    0.000
1022.35;    8.500;    0.000;    0.000
1022.66;  -23.000;    0.000;    0.000
1022.97;  -28.500;    0.000;    0.000
1023.28;   39.000;    0.000;    0.000
1023.58;    2.000;    0.000;    0.000
1023.89;  -58.500;    0.000;    0.000
1024.20;    6.500;    0.000;    0.000
1024.51;  -17.500;    0.000;    0.000
1024.82;   -0.500;    0.000;    0.000
1025.13;  -10.500;    0.000;    0.000
1025.43;  -45.500;    0.000;    0.000
1025.74;  -54.000;    0.000;    0.000
1026.05;  -22.000;    0.000;    0.000
1026.36;  -12.500;    0.000;    0.000
1026.67;   15.000;    0.000;    0.000
1026.97;  -41.000;    0.000;    0.000
1027.28;   -1.000;    0.000;    0.000
1027.59;  -17.500;    0.000;    0.000
1027.90;   39.000;    0.000;    0.000
1028.21;  -17.000;    0.000;    0.000
1028.52;  -36.500;    0.000;    0.000
1028.82;    1.000;    0.000;    0.000
1029.13;  -55.500;    0.000;    0.000
1029.44;  -56.000;    0.000;    0.000
1029.75;   14.500;    0.000;    0.000
1030.06;  -27.000;    0.000;    0.000
1030.36;  -40.500;    0.000;    0.000
1030.67;    9.500;    0.000;    0.000
1030.98;  -21.000;    0.000;    0.000
1031.29;  -48.000;    0.000;    0.000
1031.60;   14.500;    0.000;    0.000
1031.90;  -23.500;    0.000;    0.000
1032.21;  -45.500;    0.000;    0.000
1032.52;  -16.000;    0.000;    0.000
1032.83;  -41.000;    0.000;    0.000
1033.14;  -13.500;    0.000;    0.000
1033.44;    6.500;    0.000;    0.000
1033.75;  -27.500;    0.000;    0.000
1034.06;   -4.000;    0.000;    0.000
1034.37;   -4.000;    0.000;    0.000
1034.67;  -29.500;    0.000;    0.000
1034.98;    3.500;    0.000;    0.000
1035.29;  -22.500;    0.000;    0.000
1035.60;    8.500;    0.000;    0.000
1035.91;  -20.000;    0.000;    0.000
1036.21;    7.000;    0.000;    0.000
1036.52;  -31.000;    0.000;    0.000
1036.83;  -19.000;    0.000;    0.000
1037.14;   51.000;    0.000;    0.000
1037.44;  -57.500;    0.000;    0.000
1037.75;    9.500;    0.000;    0.000
1038.06;   -4.000;    0.000;    0.000
1038.37;   23.500;    0.000;    0.000
1038.67;  -16.000;    0.000;    0.000
1038.98;   15.000;    0.000;    0.000
1039.29;  -48.000;    0.000;    0.000
1039.60;   37.000;    0.000;    0.000
1039.90;    7.500;    0.000;    0.000
1040.21;  -29.000;    0.000;    0.000
1040.52;  -50.000;    0.000;    0.000
1040.83;  -10.000;    0.000;    0.000
1041.13;  -20.000;    0.000;    0.000
1041.44;  -33.500;    0.000;    0.000
1041.75;    0.000;    0.000;    0.000
1042.06;  -42.000;    0.000;    0.000
1042.36;  -16.500;    0.000;    0.000
1042.67;   -1.000;    0.000;    0.000
1042.98;  -20.000;    0.000;    0.000
1043.29;    6.000;    0.000;    0.000
1043.59;    0.500;    0.000;    0.000
1043.90;    1.500;    0.000;    0.000
1044.21;   -1.000;    0.000;    0.000
1044.52;   15.000;    0.000;    0.000
1044.82;   24.500;    0.000;    0.000
1045.13;    1.500;    0.000;    0.000
1045.44;   23.000;    0.000;    0.000
1045.74;  -23.500;    0.000;    0.000
1046.05;  -46.000;    0.000;    0.000
1046.36;   -2.500;    0.000;    0.000
1046.67;  -56.000;    0.000;    0.000
1046.97;    5.500;    0.000;    0.000
1047.28;    6.500;    0.000;    0.000
1047.59;   60.000;    0.000;    0.000
1047.89;  -52.500;    0.000;    0.000
1048.20;   -4.000;    0.000;    0.000
1048.51;    5.500;    0.000;    0.000
1048.82;   14.500;    0.000;    0.000
1049.12;  -15.500;    0.000;    0.000
1049.43;  -23.500;    0.000;    0.000
1049.74;   -4.500;    0.000;    0.000
1050.04;   24.000;    0.000;    0.000
1050.35;   26.000;    0.000;    0.000
1050.66;   -4.000;    0.000;    0.000
1050.96;   -5.500;    0.000;    0.000
1051.27;  -33.000;    0.000;    0.000
1051.58;  -13.500;    0.000;    0.000
1051.88;  -41.000;    0.000;    0.000
1052.19;  -18.500;    0.000;    0.000
1052.50;   34.500;    0.000;    0.000
1052.81;   17.000;    0.000;    0.000
1053.11;  -34.000;    0.000;    0.000
1053.42;  -12.000;    0.000;    0.000
1053.73;   13.000;    0.000;    0.000
1054.03;    0.500;    0.000;    0.000
1054.34;   19.500;    0.000;    0.000
1054.65;   35.500;    0.000;    0.000
1054.95;  -30.000;    0.000;    0.000
1055.26;   42.000;    0.000;    0.000
1055.57;  -22.500;    0.000;    0.000
1055.87;   10.000;    0.000;    0.000
1056.18;   27.500;    0.000;    0.000
1056.49;   16.500;    0.000;    0.000
1056.79;  -25.000;    0.000;    0.000
1057.10;  -22.000;    0.000;    0.000
1057.41;   -5.000;    0.000;    0.000
1057.71;  -17.000;    0.000;    0.000
1058.02;   -3.500;    0.000;    0.000
1058.33;    2.000;    0.000;    0.000
1058.63;    3.000;    0.000;    0.000
1058.94;   57.000;    0.000;    0.000
1059.24;   14.500;    0.000;    0.000
1059.55;  -50.500;    0.000;    0.000
1059.86;  -19.000;    0.000;    0.000
1060.16;    4.000;    0.000;    0.000
1060.47;   17.500;    0.000;    0.000
1060.78;    9.000;    0.000;    0.000
1061.08;   -2.000;    0.000;    0.000
1061.39;   40.000;    0.000;    0.000
1061.70;   48.000;    0.000;    0.000
1062.00;  -21.000;    0.000;    0.000
1062.31;  -29.500;    0.000;    0.000
1062.61;  -35.500;    0.000;    0.000
1062.92;  -18.000;    0.000;    0.000
1063.23;    2.500;    0.000;    0.000
1063.53;   18.500;    0.000;    0.000
1063.84;    5.000;    0.000;    0.000
1064.15;   -5.000;    0.000;    0.000
1064.45;   20.500;    0.000;    0.000
1064.76;   11.000;    0.000;    0.000
1065.06;   -0.500;    0.000;    0.000
1065.37;    6.500;    0.000;    0.000
1065.68;    1.000;    0.000;    0.000
1065.98;  -16.000;    0.000;    0.000
1066.29;  -57.000;    0.000;    0.000
1066.59;   16.500;    0.000;    0.000
1066.90;  -29.000;    0.000;    0.000
1067.21;  -51.500;    0.000;    0.000
1067.51;  -32.500;    0.000;    0.000
1067.82;  -19.500;    0.000;    0.000
1068.12;  -23.000;    0.000;    0.000
1068.43;  -19.500;    0.000;    0.000
1068.74;   -3.500;    0.000;    0.000
1069.04;   -4.000;    0.000;    0.000
1069.35;  -52.000;    0.000;    0.000
1069.65;   -0.500;    0.000;    0.000
1069.96;  -24.500;    0.000;    0.000
1070.27;  -33.500;    0.000;    0.000
1070.57;  -32.500;    0.000;    0.000
1070.88;  -20.000;    0.000;    0.000
1071.18;   -4.500;    0.000;    0.000
1071.49;   -5.500;    0.000;    0.000
1071.79;  -24.000;    0.000;    0.000
1072.10;  -37.500;    0.000;    0.000
1072.41;   11.500;    0.000;    0.000
1072.71;   12.000;    0.000;    0.000
1073.02;  -58.000;    0.000;    0.000
1073.32;  -41.000;    0.000;    0.000
1073.63;   -9.500;    0.000;    0.000
1073.93;    8.000;    0.000;    0.000
1074.24;   -7.500;    0.000;    0.000
1074.55;   15.000;    0.000;    0.000
1074.85;    3.000;    0.000;    0.000
1075.16;   19.500;    0.000;    0.000
1075.46;  -14.500;    0.000;    0.000
1075.77;   -5.500;    0.000;    0.000
1076.07;   -8.000;    0.000;    0.000
1076.38;  -12.500;    0.000;    0.000
1076.68;   -1.000;    0.000;    0.000
1076.99;    0.000;    0.000;    0.000
1077.30;    1.500;    0.000;    0.000
1077.60;    8.000;    0.000;    0.000
1077.91;  -19.500;    0.000;    0.000
1078.21;  -40.500;    0.000;    0.000
1078.52;   13.500;    0.000;    0.000
1078.82;   23.500;    0.000;    0.000
1079.13;  -11.500;    0.000;    0.000
1079.43;  -68.500;    0.000;    0.000
1079.74;  -38.000;    0.000;    0.000
1080.04;  -44.000;    0.000;    0.000
1080.35;  -21.000;    0.000;    0.000
1080.65;  -26.500;    0.000;    0.000
1080.96;   -6.000;    0.000;    0.000
1081.26;  -47.000;    0.000;    0.000
1081.57;  -30.500;    0.000;    0.000
1081.87;  -42.500;    0.000;    0.000
1082.18;    3.000;    0.000;    0.000
1082.49;  -22.000;    0.000;    0.000
1082.79;   21.000;    0.000;    0.000
1083.10;   -9.500;    0.000;    0.000
1083.40;   11.000;    0.000;    0.000
1083.71;  -10.500;    0.000;    0.000
1084.01;  -28.500;    0.000;    0.000
1084.32;    1.500;    0.000;    0.000
1084.62;  -23.000;    0.000;    0.000
1084.93;   -3.500;    0.000;    0.000
1085.23;  -26.000;    0.000;    0.000
1085.54;  -20.500;    0.000;    0.000
1085.84;    4.500;    0.000;    0.000
1086.15;  -15.500;    0.000;    0.000
1086.45;   23.000;    0.000;    0.000
1086.76;  -22.000;    0.000;    0.000
1087.06;   28.000;    0.000;    0.000
1087.37;  -16.000;    0.000;    0.000
1087.67;   15.500;    0.000;    0.000
1087.98;   -4.500;    0.000;    0.000
1088.28;  -60.500;    0.000;    0.000
1088.58;   22.000;    0.000;    0.000
1088.89;  -22.500;    0.000;    0.000
1089.19;   -2.000;    0.000;    0.000
1089.50;  -20.000;    0.000;    0.000
1089.80;   11.000;    0.000;    0.000
1090.11;   23.500;    0.000;    0.000
1090.41;   -5.000;    0.000;    0.000
1090.72;   -7.500;    0.000;    0.000
1091.02;   34.000;    0.000;    0.000
1091.33;  -52.000;    0.000;    0.000
1091.63;  -32.500;    0.000;    0.000
1091.94;  -12.000;    0.000;    0.000
1092.24;  -19.000;    0.000;    0.000
1092.55;    7.500;    0.000;    0.000
1092.85;  -27.000;    0.000;    0.000
1093.15;  -18.000;    0.000;    0.000
1093.46;   -9.000;    0.000;    0.000
1093.76;  -10.000;    0.000;    0.000
1094.07;  -20.500;    0.000;    0.000
1094.37;  -18.000;    0.000;    0.000
1094.68;   30.000;    0.000;    0.000
1094.98;    0.000;    0.000;    0.000
1095.29;   -5.000;    0.000;    0.000
1095.59;  -10.500;    0.000;    0.000
1095.90;   -9.000;    0.000;    0.000
1096.20;    8.500;    0.000;    0.000
1096.50;  -34.000;    0.000;    0.000
1096.81;   -9.000;    0.000;    0.000
1097.11;  -30.500;    0.000;    0.000
1097.42;  -19.000;    0.000;    0.000
1097.72;    6.000;    0.000;    0.000
1098.03;  -27.500;    0.000;    0.000
1098.33;   -8.500;    0.000;    0.000
1098.63;    0.500;    0.000;    0.000
1098.94;   -8.500;    0.000;    0.000
1099.24;  -46.500;    0.000;    0.000
1099.55;  -19.500;    0.000;    0.000
1099.85;  -21.500;    0.000;    0.000
1100.15;  -39.000;    0.000;    0.000

